-0.280
-0.115
-0.010
0.075
0.110
0.100
0.060
0.000
-0.060
-0.100
-0.110
-0.100
-0.070
-0.030
0.005
0.020
0.025
0.010
-0.010
-0.025
-0.035
-0.035
-0.020
0.000
0.025
0.045
0.050
0.045
0.030
0.010
-0.010
-0.015
-0.015
-0.005
0.010
0.030
0.045
0.055
0.055
0.050
0.035
0.020
0.005
-0.010
-0.020
-0.025
-0.030
-0.035
-0.040
-0.045
-0.050
-0.055
-0.055
-0.050
-0.045
-0.040
-0.035
-0.030
-0.035
-0.040
-0.050
-0.060
-0.070
-0.075
-0.080
-0.075
-0.065
-0.055
-0.045
-0.040
-0.035
-0.030
-0.035
-0.040
-0.050
-0.055
-0.060
-0.065
-0.060
-0.055
-0.050
-0.040
-0.035
-0.035
-0.035
-0.040
-0.050
-0.065
-0.080
-0.095
-0.115
-0.130
-0.140
-0.140
-0.130
-0.100
-0.045
0.035
0.145
0.275
0.420
0.575
0.715
0.835
0.925
0.965
0.960
0.905
0.815
0.690
0.550
0.410
0.280
0.165
0.080
0.015
-0.020
-0.035
-0.040
-0.030
-0.020
-0.010
0.000
0.000
0.000
-0.005
-0.015
-0.025
-0.030
-0.035
-0.040
-0.040
-0.040
-0.045
-0.045
-0.045
-0.050
-0.055
-0.060
-0.065
-0.065
-0.065
-0.060
-0.055
-0.050
-0.040
-0.035
-0.030
-0.025
-0.025
-0.025
-0.030
-0.030
-0.035
-0.035
-0.040
-0.040
-0.040
-0.040
-0.040
-0.040
-0.040
-0.035
-0.035
-0.035
-0.030
-0.030
-0.025
-0.025
-0.025
-0.025
-0.025
-0.025
-0.030
-0.030
-0.035
-0.035
-0.030
-0.025
-0.020
-0.010
-0.005
0.005
0.010
0.015
0.010
0.010
0.005
-0.005
-0.010
-0.015
-0.015
-0.010
-0.005
0.000
0.010
0.015
0.020
0.020
0.020
0.020
0.020
0.025
0.030
0.035
0.045
0.055
0.065
0.075
0.080
0.080
0.080
0.080
0.080
0.080
0.080
0.080
0.085
0.095
0.105
0.115
0.125
0.135
0.145
0.150
0.150
0.145
0.145
0.135
0.130
0.125
0.125
0.125
0.135
0.150
0.165
0.185
0.200
0.210
0.215
0.210
0.205
0.195
0.180
0.170
0.160
0.155
0.150
0.150
0.145
0.145
0.145
0.140
0.140
0.135
0.125
0.120
0.110
0.095
0.075
0.055
0.035
0.010
-0.010
-0.020
-0.030
-0.030
-0.025
-0.015
-0.005
0.000
0.005
0.000
-0.010
-0.020
-0.035
-0.045
-0.050
-0.055
-0.055
-0.055
-0.050
-0.050
-0.050
-0.055
-0.060
-0.065
-0.065
-0.065
-0.060
-0.050
-0.040
-0.040
-0.040
-0.050
-0.065
-0.085
-0.105
-0.125
-0.135
-0.135
-0.125
-0.105
-0.085
-0.060
-0.040
-0.025
-0.020
-0.025
-0.030
-0.045
-0.055
-0.065
-0.075
-0.075
-0.075
-0.070
-0.060
-0.055
-0.050
-0.050
-0.050
-0.050
-0.055
-0.055
-0.060
-0.060
-0.065
-0.070
-0.075
-0.075
-0.080
-0.085
-0.085
-0.085
-0.080
-0.075
-0.070
-0.065
-0.060
-0.055
-0.050
-0.045
-0.040
-0.035
-0.035
-0.035
-0.040
-0.050
-0.060
-0.070
-0.075
-0.080
-0.080
-0.075
-0.065
-0.055
-0.045
-0.035
-0.030
-0.030
-0.035
-0.045
-0.055
-0.060
-0.065
-0.065
-0.065
-0.060
-0.055
-0.055
-0.055
-0.060
-0.065
-0.070
-0.070
-0.070
-0.070
-0.070
-0.065
-0.065
-0.070
-0.075
-0.080
-0.085
-0.085
-0.080
-0.075
-0.065
-0.055
-0.045
-0.040
-0.040
-0.045
-0.055
-0.070
-0.080
-0.090
-0.095
-0.095
-0.085
-0.080
-0.065
-0.055
-0.045
-0.040
-0.035
-0.030
-0.030
-0.035
-0.035
-0.035
-0.035
-0.035
-0.035
-0.035
-0.030
-0.030
-0.030
-0.030
-0.030
-0.030
-0.035
-0.035
-0.030
-0.030
-0.025
-0.015
-0.010
0.000
0.005
0.005
0.005
0.005
0.000
0.000
0.000
0.000
0.000
0.000
-0.005
-0.010
-0.025
-0.045
-0.065
-0.080
-0.095
-0.100
-0.095
-0.085
-0.070
-0.050
-0.035
-0.030
-0.035
-0.045
-0.065
-0.090
-0.105
-0.120
-0.120
-0.115
-0.100
-0.075
-0.060
-0.045
-0.035
-0.040
-0.050
-0.060
-0.075
-0.090
-0.095
-0.100
-0.095
-0.090
-0.085
-0.080
-0.080
-0.080
-0.080
-0.085
-0.085
-0.090
-0.090
-0.090
-0.095
-0.105
-0.115
-0.125
-0.135
-0.135
-0.120
-0.090
-0.035
0.045
0.140
0.255
0.380
0.505
0.620
0.715
0.780
0.805
0.795
0.745
0.660
0.550
0.425
0.300
0.185
0.085
0.010
-0.035
-0.060
-0.065
-0.060
-0.045
-0.035
-0.030
-0.030
-0.040
-0.045
-0.055
-0.060
-0.060
-0.055
-0.050
-0.045
-0.040
-0.040
-0.045
-0.055
-0.060
-0.070
-0.075
-0.075
-0.070
-0.060
-0.055
-0.045
-0.040
-0.035
-0.040
-0.045
-0.055
-0.060
-0.065
-0.070
-0.070
-0.065
-0.055
-0.050
-0.040
-0.040
-0.040
-0.045
-0.050
-0.055
-0.060
-0.065
-0.065
-0.060
-0.055
-0.045
-0.040
-0.030
-0.030
-0.030
-0.030
-0.030
-0.030
-0.030
-0.025
-0.025
-0.020
-0.015
-0.015
-0.015
-0.020
-0.020
-0.025
-0.025
-0.020
-0.020
-0.015
-0.010
-0.005
-0.005
-0.005
-0.010
-0.010
-0.010
-0.005
0.000
0.010
0.015
0.025
0.030
0.035
0.035
0.035
0.030
0.030
0.030
0.025
0.030
0.030
0.030
0.035
0.040
0.050
0.060
0.075
0.085
0.100
0.115
0.120
0.125
0.125
0.120
0.110
0.105
0.100
0.105
0.110
0.125
0.140
0.160
0.175
0.185
0.190
0.190
0.185
0.175
0.165
0.155
0.145
0.145
0.145
0.150
0.160
0.170
0.180
0.190
0.195
0.195
0.190
0.180
0.165
0.150
0.130
0.115
0.100
0.085
0.075
0.065
0.060
0.050
0.045
0.035
0.025
0.015
0.000
-0.015
-0.030
-0.040
-0.050
-0.060
-0.065
-0.070
-0.070
-0.075
-0.075
-0.080
-0.085
-0.085
-0.085
-0.080
-0.070
-0.060
-0.050
-0.040
-0.035
-0.030
-0.030
-0.035
-0.045
-0.055
-0.065
-0.065
-0.065
-0.055
-0.045
-0.030
-0.015
-0.005
0.000
-0.005
-0.020
-0.040
-0.060
-0.080
-0.095
-0.105
-0.100
-0.090
-0.075
-0.060
-0.045
-0.035
-0.030
-0.030
-0.040
-0.050
-0.055
-0.065
-0.065
-0.065
-0.060
-0.050
-0.045
-0.040
-0.035
-0.035
-0.035
-0.040
-0.040
-0.040
-0.040
-0.040
-0.040
-0.040
-0.040
-0.045
-0.050
-0.055
-0.055
-0.060
-0.060
-0.055
-0.055
-0.050
-0.045
-0.045
-0.045
-0.045
-0.045
-0.045
-0.045
-0.045
-0.040
-0.035
-0.035
-0.030
-0.035
-0.035
-0.045
-0.050
-0.055
-0.055
-0.055
-0.050
-0.045
-0.040
-0.035
-0.030
-0.035
-0.040
-0.050
-0.060
-0.070
-0.075
-0.085
-0.085
-0.090
-0.085
-0.085
-0.080
-0.075
-0.070
-0.060
-0.050
-0.040
-0.030
-0.025
-0.025
-0.030
-0.035
-0.050
-0.060
-0.070
-0.080
-0.085
-0.080
-0.070
-0.060
-0.050
-0.035
-0.025
-0.020
-0.020
-0.020
-0.025
-0.025
-0.030
-0.035
-0.035
-0.035
-0.030
-0.020
-0.015
-0.005
0.000
0.005
0.010
0.010
0.005
0.000
-0.005
-0.010
-0.015
-0.020
-0.020
-0.020
-0.020
-0.020
-0.025
-0.030
-0.035
-0.045
-0.055
-0.065
-0.070
-0.075
-0.075
-0.070
-0.070
-0.065
-0.065
-0.070
-0.075
-0.080
-0.085
-0.090
-0.090
-0.090
-0.085
-0.085
-0.080
-0.075
-0.075
-0.075
-0.075
-0.075
-0.075
-0.075
-0.075
-0.080
-0.085
-0.085
-0.090
-0.095
-0.095
-0.090
-0.085
-0.075
-0.070
-0.060
-0.055
-0.060
-0.070
-0.085
-0.105
-0.125
-0.140
-0.145
-0.130
-0.095
-0.030
0.060
0.170
0.300
0.435
0.565
0.675
0.760
0.805
0.810
0.770
0.695
0.595
0.480
0.355
0.240
0.135
0.055
-0.005
-0.040
-0.060
-0.060
-0.055
-0.050
-0.040
-0.035
-0.035
-0.035
-0.045
-0.055
-0.060
-0.065
-0.070
-0.065
-0.060
-0.055
-0.045
-0.040
-0.035
-0.035
-0.040
-0.040
-0.045
-0.045
-0.050
-0.055
-0.055
-0.060
-0.060
-0.065
-0.065
-0.065
-0.060
-0.055
-0.045
-0.040
-0.030
-0.025
-0.020
-0.020
-0.025
-0.030
-0.035
-0.040
-0.040
-0.045
-0.045
-0.040
-0.040
-0.040
-0.040
-0.045
-0.045
-0.045
-0.045
-0.040
-0.030
-0.020
-0.015
-0.005
0.000
0.000
-0.005
-0.010
-0.020
-0.025
-0.030
-0.035
-0.035
-0.030
-0.025
-0.020
-0.015
-0.015
-0.010
-0.010
-0.005
-0.005
0.000
0.005
0.010
0.015
0.020
0.020
0.020
0.020
0.025
0.025
0.030
0.040
0.050
0.060
0.070
0.075
0.080
0.075
0.070
0.060
0.050
0.040
0.035
0.035
0.040
0.050
0.065
0.080
0.100
0.115
0.125
0.135
0.140
0.145
0.150
0.150
0.150
0.155
0.155
0.160
0.160
0.160
0.165
0.165
0.165
0.165
0.165
0.165
0.165
0.165
0.165
0.160
0.160
0.155
0.150
0.140
0.130
0.115
0.100
0.080
0.065
0.045
0.030
0.015
0.010
0.010
0.010
0.015
0.015
0.015
0.010
0.000
-0.015
-0.035
-0.050
-0.065
-0.075
-0.075
-0.070
-0.060
-0.050
-0.045
-0.045
-0.050
-0.065
-0.080
-0.100
-0.120
-0.130
-0.130
-0.125
-0.115
-0.100
-0.085
-0.075
-0.065
-0.070
-0.075
-0.080
-0.085
-0.090
-0.090
-0.085
-0.075
-0.065
-0.060
-0.050
-0.050
-0.050
-0.050
-0.055
-0.055
-0.060
-0.065
-0.065
-0.070
-0.080
-0.085
-0.090
-0.095
-0.100
-0.095
-0.090
-0.075
-0.065
-0.050
-0.045
-0.040
-0.045
-0.050
-0.065
-0.075
-0.085
-0.090
-0.090
-0.080
-0.075
-0.060
-0.055
-0.050
-0.050
-0.055
-0.060
-0.070
-0.075
-0.080
-0.075
-0.070
-0.065
-0.055
-0.045
-0.040
-0.040
-0.040
-0.045
-0.055
-0.065
-0.070
-0.075
-0.080
-0.085
-0.085
-0.085
-0.085
-0.080
-0.075
-0.075
-0.070
-0.070
-0.070
-0.070
-0.075
-0.085
-0.090
-0.095
-0.100
-0.100
-0.100
-0.090
-0.080
-0.070
-0.055
-0.050
-0.045
-0.045
-0.050
-0.060
-0.070
-0.085
-0.095
-0.105
-0.105
-0.105
-0.100
-0.090
-0.085
-0.075
-0.075
-0.070
-0.075
-0.075
-0.080
-0.080
-0.080
-0.075
-0.070
-0.070
-0.065
-0.060
-0.060
-0.060
-0.060
-0.060
-0.055
-0.050
-0.040
-0.030
-0.020
-0.015
-0.010
-0.010
-0.015
-0.020
-0.030
-0.035
-0.040
-0.045
-0.040
-0.040
-0.035
-0.030
-0.030
-0.035
-0.040
-0.050
-0.065
-0.075
-0.085
-0.090
-0.095
-0.090
-0.085
-0.075
-0.065
-0.060
-0.055
-0.050
-0.050
-0.055
-0.065
-0.070
-0.080
-0.085
-0.085
-0.085
-0.080
-0.070
-0.060
-0.050
-0.045
-0.040
-0.040
-0.050
-0.060
-0.070
-0.080
-0.090
-0.095
-0.090
-0.085
-0.075
-0.065
-0.060
-0.060
-0.070
-0.085
-0.105
-0.130
-0.145
-0.150
-0.135
-0.100
-0.040
0.045
0.150
0.270
0.400
0.535
0.655
0.765
0.845
0.900
0.910
0.885
0.820
0.720
0.600
0.465
0.330
0.205
0.105
0.035
-0.010
-0.025
-0.025
-0.010
0.005
0.015
0.020
0.020
0.010
-0.005
-0.015
-0.025
-0.030
-0.030
-0.030
-0.025
-0.020
-0.020
-0.020
-0.025
-0.030
-0.030
-0.030
-0.030
-0.025
-0.020
-0.020
-0.015
-0.015
-0.015
-0.020
-0.030
-0.035
-0.045
-0.055
-0.060
-0.065
-0.065
-0.060
-0.050
-0.040
-0.025
-0.015
-0.005
0.000
0.000
-0.005
-0.015
-0.025
-0.035
-0.040
-0.045
-0.045
-0.045
-0.045
-0.040
-0.040
-0.035
-0.035
-0.030
-0.025
-0.020
-0.015
-0.015
-0.010
-0.010
-0.010
-0.015
-0.015
-0.015
-0.015
-0.015
-0.005
0.000
0.010
0.015
0.020
0.020
0.015
0.015
0.010
0.005
0.005
0.010
0.015
0.020
0.025
0.030
0.035
0.040
0.040
0.040
0.040
0.040
0.040
0.040
0.040
0.040
0.040
0.045
0.050
0.055
0.060
0.070
0.080
0.095
0.110
0.125
0.140
0.150
0.160
0.165
0.170
0.170
0.170
0.170
0.170
0.175
0.185
0.190
0.195
0.200
0.200
0.195
0.190
0.185
0.175
0.170
0.160
0.155
0.155
0.150
0.145
0.135
0.125
0.115
0.100
0.090
0.080
0.075
0.075
0.070
0.070
0.070
0.065
0.055
0.045
0.035
0.020
0.010
0.005
-0.005
-0.010
-0.015
-0.020
-0.025
-0.035
-0.040
-0.050
-0.055
-0.055
-0.050
-0.045
-0.035
-0.030
-0.020
-0.020
-0.025
-0.030
-0.040
-0.050
-0.055
-0.060
-0.065
-0.060
-0.055
-0.050
-0.045
-0.045
-0.045
-0.050
-0.060
-0.065
-0.070
-0.070
-0.065
-0.060
-0.050
-0.040
-0.030
-0.030
-0.030
-0.040
-0.050
-0.065
-0.075
-0.085
-0.090
-0.090
-0.090
-0.080
-0.075
-0.060
-0.050
-0.040
-0.030
-0.020
-0.010
-0.005
0.000
-0.005
-0.010
-0.020
-0.035
-0.050
-0.060
-0.065
-0.065
-0.060
-0.055
-0.045
-0.035
-0.035
-0.035
-0.045
-0.060
-0.070
-0.080
-0.085
-0.085
-0.080
-0.070
-0.060
-0.055
-0.055
-0.055
-0.060
-0.070
-0.075
-0.075
-0.070
-0.060
-0.050
-0.040
-0.035
-0.030
-0.035
-0.040
-0.050
-0.060
-0.065
-0.070
-0.070
-0.070
-0.065
-0.065
-0.065
-0.065
-0.070
-0.075
-0.080
-0.085
-0.085
-0.090
-0.085
-0.085
-0.085
-0.080
-0.080
-0.080
-0.075
-0.075
-0.070
-0.070
-0.070
-0.070
-0.070
-0.070
-0.070
-0.070
-0.075
-0.075
-0.075
-0.075
-0.075
-0.080
-0.080
-0.085
-0.090
-0.095
-0.100
-0.105
-0.100
-0.100
-0.090
-0.080
-0.070
-0.060
-0.055
-0.050
-0.050
-0.055
-0.060
-0.060
-0.065
-0.060
-0.055
-0.045
-0.035
-0.030
-0.020
-0.020
-0.020
-0.025
-0.030
-0.030
-0.030
-0.025
-0.015
-0.005
0.010
0.020
0.025
0.020
0.010
0.000
-0.020
-0.035
-0.050
-0.060
-0.065
-0.065
-0.065
-0.065
-0.065
-0.065
-0.065
-0.065
-0.065
-0.065
-0.060
-0.055
-0.055
-0.055
-0.060
-0.065
-0.070
-0.075
-0.080
-0.080
-0.075
-0.070
-0.060
-0.055
-0.055
-0.055
-0.060
-0.070
-0.080
-0.085
-0.085
-0.080
-0.075
-0.065
-0.055
-0.045
-0.045
-0.045
-0.050
-0.060
-0.070
-0.080
-0.090
-0.100
-0.105
-0.110
-0.115
-0.120
-0.125
-0.125
-0.115
-0.095
-0.060
0.000
0.085
0.195
0.325
0.470
0.615
0.755
0.865
0.940
0.970
0.950
0.880
0.775
0.640
0.495
0.355
0.230
0.130
0.060
0.020
0.005
0.005
0.010
0.015
0.010
0.000
-0.020
-0.040
-0.065
-0.080
-0.085
-0.085
-0.075
-0.060
-0.045
-0.035
-0.030
-0.035
-0.045
-0.055
-0.065
-0.070
-0.070
-0.060
-0.050
-0.045
-0.035
-0.035
-0.045
-0.050
-0.060
-0.070
-0.070
-0.060
-0.045
-0.030
-0.010
0.000
0.005
0.000
-0.010
-0.025
-0.035
-0.040
-0.040
-0.035
-0.025
-0.020
-0.020
-0.025
-0.040
-0.060
-0.080
-0.095
-0.100
-0.095
-0.075
-0.055
-0.030
-0.010
0.005
0.005
0.000
-0.015
-0.025
-0.040
-0.045
-0.040
-0.030
-0.015
-0.005
0.005
0.010
0.010
0.005
-0.005
-0.010
-0.015
-0.015
-0.010
-0.005
0.000
0.000
0.000
0.000
-0.005
-0.010
-0.005
0.000
0.010
0.025
0.040
0.055
0.065
0.075
0.080
0.075
0.075
0.075
0.075
0.075
0.085
0.095
0.110
0.125
0.130
0.135
0.135
0.125
0.115
0.105
0.100
0.105
0.110
0.130
0.145
0.165
0.185
0.195
0.195
0.190
0.185
0.175
0.165
0.165
0.175
0.185
0.195
0.205
0.205
0.200
0.185
0.160
0.135
0.115
0.100
0.095
0.100
0.110
0.120
0.125
0.125
0.120
0.100
0.075
0.045
0.020
-0.005
-0.015
-0.025
-0.025
-0.025
-0.025
-0.025
-0.030
-0.035
-0.045
-0.050
-0.055
-0.055
-0.055
-0.050
-0.045
-0.040
-0.040
-0.045
-0.045
-0.050
-0.050
-0.050
-0.040
-0.035
-0.025
-0.020
-0.015
-0.020
-0.030
-0.045
-0.055
-0.065
-0.075
-0.070
-0.065
-0.055
-0.045
-0.035
-0.025
-0.025
-0.030
-0.035
-0.040
-0.045
-0.045
-0.045
-0.045
-0.045
-0.045
-0.045
-0.050
-0.055
-0.060
-0.065
-0.065
-0.060
-0.055
-0.045
-0.045
-0.040
-0.045
-0.050
-0.060
-0.065
-0.070
-0.070
-0.065
-0.060
-0.050
-0.040
-0.035
-0.040
-0.045
-0.055
-0.065
-0.070
-0.070
-0.065
-0.060
-0.050
-0.040
-0.035
-0.035
-0.040
-0.050
-0.065
-0.075
-0.080
-0.085
-0.080
-0.075
-0.065
-0.060
-0.055
-0.050
-0.055
-0.060
-0.065
-0.070
-0.070
-0.075
-0.075
-0.075
-0.075
-0.080
-0.080
-0.085
-0.090
-0.090
-0.085
-0.075
-0.065
-0.050
-0.040
-0.030
-0.025
-0.030
-0.040
-0.050
-0.070
-0.085
-0.095
-0.100
-0.100
-0.095
-0.080
-0.070
-0.060
-0.055
-0.055
-0.060
-0.070
-0.080
-0.090
-0.095
-0.095
-0.090
-0.080
-0.075
-0.065
-0.060
-0.060
-0.060
-0.065
-0.070
-0.075
-0.080
-0.085
-0.085
-0.080
-0.080
-0.075
-0.075
-0.075
-0.070
-0.070
-0.070
-0.070
-0.070
-0.065
-0.065
-0.060
-0.055
-0.050
-0.050
-0.055
-0.055
-0.060
-0.060
-0.060
-0.060
-0.050
-0.035
-0.020
0.000
0.015
0.025
0.030
0.025
0.015
-0.005
-0.025
-0.040
-0.055
-0.060
-0.065
-0.060
-0.050
-0.045
-0.040
-0.035
-0.035
-0.040
-0.045
-0.055
-0.060
-0.065
-0.065
-0.070
-0.075
-0.080
-0.090
-0.095
-0.100
-0.100
-0.095
-0.090
-0.075
-0.065
-0.050
-0.040
-0.035
-0.040
-0.045
-0.055
-0.065
-0.075
-0.080
-0.080
-0.075
-0.065
-0.055
-0.045
-0.035
-0.030
-0.035
-0.040
-0.055
-0.070
-0.085
-0.100
-0.110
-0.115
-0.115
-0.105
-0.095
-0.085
-0.075
-0.070
-0.075
-0.085
-0.100
-0.115
-0.130
-0.135
-0.125
-0.100
-0.050
0.025
0.120
0.240
0.370
0.510
0.645
0.765
0.855
0.910
0.925
0.895
0.820
0.715
0.590
0.460
0.330
0.215
0.125
0.055
0.010
-0.015
-0.025
-0.025
-0.020
-0.020
-0.015
-0.020
-0.020
-0.020
-0.025
-0.030
-0.035
-0.040
-0.050
-0.060
-0.065
-0.075
-0.075
-0.075
-0.070
-0.060
-0.050
-0.045
-0.040
-0.045
-0.050
-0.055
-0.065
-0.070
-0.070
-0.065
-0.055
-0.045
-0.035
-0.025
-0.020
-0.025
-0.030
-0.040
-0.050
-0.055
-0.060
-0.055
-0.050
-0.040
-0.035
-0.025
-0.020
-0.020
-0.020
-0.020
-0.025
-0.020
-0.020
-0.020
-0.020
-0.020
-0.025
-0.035
-0.045
-0.055
-0.060
-0.060
-0.060
-0.050
-0.035
-0.020
-0.005
0.000
0.005
0.000
-0.010
-0.020
-0.030
-0.040
-0.040
-0.040
-0.035
-0.025
-0.015
-0.005
0.000
0.005
0.010
0.020
0.025
0.030
0.040
0.045
0.050
0.055
0.055
0.055
0.055
0.055
0.055
0.060
0.060
0.065
0.070
0.075
0.085
0.090
0.095
0.105
0.110
0.125
0.135
0.145
0.155
0.165
0.170
0.170
0.170
0.170
0.165
0.160
0.160
0.155
0.155
0.160
0.160
0.160
0.165
0.165
0.170
0.170
0.170
0.170
0.165
0.165
0.155
0.150
0.145
0.135
0.130
0.130
0.125
0.120
0.115
0.110
0.095
0.085
0.070
0.055
0.040
0.025
0.015
0.005
0.000
-0.005
-0.010
-0.020
-0.030
-0.035
-0.045
-0.050
-0.050
-0.050
-0.045
-0.035
-0.030
-0.025
-0.025
-0.025
-0.035
-0.045
-0.055
-0.065
-0.065
-0.060
-0.050
-0.035
-0.025
-0.015
-0.010
-0.015
-0.025
-0.040
-0.060
-0.075
-0.080
-0.080
-0.070
-0.055
-0.035
-0.015
0.000
0.005
0.005
-0.010
-0.025
-0.045
-0.060
-0.075
-0.080
-0.080
-0.075
-0.070
-0.060
-0.050
-0.045
-0.040
-0.040
-0.040
-0.045
-0.050
-0.055
-0.055
-0.060
-0.060
-0.055
-0.055
-0.055
-0.055
-0.060
-0.065
-0.070
-0.075
-0.080
-0.080
-0.070
-0.060
-0.050
-0.035
-0.025
-0.020
-0.020
-0.025
-0.040
-0.050
-0.065
-0.070
-0.075
-0.070
-0.065
-0.055
-0.045
-0.040
-0.040
-0.045
-0.050
-0.055
-0.060
-0.065
-0.065
-0.065
-0.060
-0.060
-0.060
-0.060
-0.060
-0.060
-0.060
-0.060
-0.060
-0.055
-0.055
-0.050
-0.050
-0.055
-0.060
-0.065
-0.070
-0.070
-0.070
-0.065
-0.060
-0.055
-0.050
-0.050
-0.050
-0.055
-0.055
-0.060
-0.060
-0.065
-0.065
-0.060
-0.060
-0.060
-0.060
-0.060
-0.060
-0.060
-0.060
-0.060
-0.060
-0.060
-0.060
-0.055
-0.050
-0.050
-0.045
-0.040
-0.040
-0.040
-0.040
-0.045
-0.045
-0.050
-0.050
-0.050
-0.045
-0.035
-0.025
-0.015
0.000
0.010
0.015
0.015
0.010
0.000
-0.010
-0.025
-0.040
-0.050
-0.060
-0.065
-0.065
-0.060
-0.050
-0.040
-0.035
-0.025
-0.025
-0.025
-0.035
-0.045
-0.055
-0.060
-0.065
-0.065
-0.065
-0.055
-0.045
-0.040
-0.035
-0.040
-0.050
-0.065
-0.080
-0.095
-0.105
-0.115
-0.115
-0.110
-0.100
-0.090
-0.075
-0.070
-0.065
-0.060
-0.065
-0.065
-0.070
-0.070
-0.070
-0.065
-0.065
-0.060
-0.060
-0.065
-0.075
-0.090
-0.105
-0.125
-0.135
-0.135
-0.115
-0.080
-0.020
0.065
0.170
0.295
0.420
0.545
0.660
0.745
0.800
0.815
0.795
0.735
0.645
0.540
0.420
0.305
0.195
0.105
0.035
-0.015
-0.045
-0.060
-0.065
-0.060
-0.055
-0.050
-0.050
-0.050
-0.050
-0.055
-0.055
-0.055
-0.055
-0.050
-0.045
-0.040
-0.035
-0.035
-0.035
-0.040
-0.050
-0.055
-0.065
-0.070
-0.075
-0.070
-0.065
-0.060
-0.050
-0.045
-0.045
-0.045
-0.045
-0.050
-0.055
-0.060
-0.060
-0.055
-0.045
-0.035
-0.030
-0.020
-0.020
-0.020
-0.025
-0.030
-0.040
-0.050
-0.055
-0.055
-0.055
-0.045
-0.035
-0.020
-0.010
-0.005
0.000
0.000
-0.010
-0.020
-0.030
-0.040
-0.050
-0.055
-0.055
-0.050
-0.045
-0.040
-0.040
-0.035
-0.035
-0.035
-0.035
-0.035
-0.035
-0.035
-0.030
-0.025
-0.020
-0.015
-0.015
-0.010
-0.005
-0.005
0.000
0.000
0.005
0.010
0.020
0.025
0.035
0.045
0.055
0.060
0.065
0.065
0.065
0.065
0.065
0.065
0.065
0.065
0.070
0.075
0.080
0.085
0.090
0.100
0.105
0.110
0.115
0.115
0.120
0.120
0.125
0.130
0.135
0.140
0.150
0.155
0.165
0.170
0.170
0.175
0.170
0.170
0.165
0.165
0.160
0.160
0.160
0.160
0.160
0.160
0.150
0.135
0.120
0.100
0.075
0.055
0.040
0.025
0.015
0.010
0.010
0.005
0.005
0.000
-0.010
-0.020
-0.030
-0.040
-0.050
-0.060
-0.065
-0.070
-0.070
-0.070
-0.070
-0.070
-0.065
-0.065
-0.065
-0.065
-0.065
-0.065
-0.065
-0.065
-0.060
-0.055
-0.050
-0.050
-0.050
-0.055
-0.060
-0.070
-0.080
-0.090
-0.095
-0.095
-0.095
-0.090
-0.085
-0.080
-0.080
-0.085
-0.090
-0.100
-0.105
-0.110
-0.110
-0.105
-0.100
-0.090
-0.080
-0.075
-0.075
-0.080
-0.085
-0.090
-0.090
-0.085
-0.080
-0.065
-0.050
-0.040
-0.030
-0.030
-0.040
-0.055
-0.075
-0.090
-0.100
-0.100
-0.095
-0.080
-0.065
-0.045
-0.030
-0.020
-0.020
-0.030
-0.040
-0.055
-0.070
-0.080
-0.085
-0.085
-0.080
-0.075
-0.070
-0.065
-0.065
-0.070
-0.075
-0.075
-0.080
-0.075
-0.075
-0.070
-0.065
-0.060
-0.065
-0.065
-0.075
-0.080
-0.085
-0.085
-0.080
-0.075
-0.070
-0.060
-0.060
-0.055
-0.060
-0.065
-0.065
-0.065
-0.065
-0.060
-0.050
-0.040
-0.035
-0.035
-0.045
-0.060
-0.080
-0.095
-0.110
-0.115
-0.115
-0.105
-0.090
-0.070
-0.050
-0.040
-0.030
-0.035
-0.040
-0.050
-0.060
-0.065
-0.065
-0.060
-0.050
-0.035
-0.020
-0.005
0.005
0.010
0.010
0.005
-0.005
-0.020
-0.025
-0.030
-0.030
-0.015
0.000
0.025
0.050
0.070
0.080
0.080
0.065
0.040
0.000
-0.035
-0.075
-0.100
-0.120
-0.120
-0.115
-0.095
-0.075
-0.055
-0.040
-0.030
-0.030
-0.035
-0.045
-0.060
-0.070
-0.080
-0.085
-0.085
-0.080
-0.080
-0.070
-0.065
-0.065
-0.060
-0.055
-0.055
-0.055
-0.055
-0.050
-0.050
-0.050
-0.050
-0.050
-0.045
-0.045
-0.040
-0.040
-0.040
-0.040
-0.040
-0.045
-0.050
-0.060
-0.075
-0.090
-0.110
-0.125
-0.130
-0.125
-0.110
-0.070
-0.010
0.075
0.175
0.290
0.410
0.525
0.630
0.710
0.760
0.770
0.750
0.690
0.605
0.500
0.385
0.270
0.165
0.080
0.020
-0.020
-0.035
-0.040
-0.030
-0.015
0.000
0.005
0.010
0.005
-0.005
-0.020
-0.030
-0.040
-0.040
-0.040
-0.035
-0.025
-0.020
-0.010
-0.010
-0.010
-0.015
-0.025
-0.030
-0.030
-0.035
-0.030
-0.025
-0.020
-0.015
-0.010
-0.010
-0.020
-0.025
-0.040
-0.050
-0.060
-0.065
-0.070
-0.065
-0.060
-0.050
-0.040
-0.035
-0.030
-0.025
-0.025
-0.025
-0.025
-0.025
-0.025
-0.020
-0.015
-0.015
-0.015
-0.015
-0.015
-0.015
-0.010
-0.010
-0.005
0.000
0.010
0.010
0.015
0.010
0.005
-0.005
-0.015
-0.025
-0.035
-0.035
-0.035
-0.035
-0.025
-0.020
-0.010
-0.005
0.005
0.010
0.020
0.035
0.045
0.055
0.065
0.065
0.060
0.050
0.035
0.020
0.010
0.000
0.000
0.015
0.030
0.055
0.080
0.100
0.110
0.120
0.115
0.110
0.100
0.090
0.080
0.080
0.080
0.090
0.100
0.115
0.125
0.140
0.150
0.160
0.165
0.170
0.175
0.175
0.170
0.170
0.165
0.160
0.155
0.150
0.150
0.150
0.150
0.155
0.165
0.170
0.180
0.185
0.185
0.180
0.175
0.160
0.140
0.115
0.095
0.070
0.055
0.040
0.035
0.035
0.035
0.045
0.050
0.050
0.045
0.040
0.025
0.005
-0.015
-0.035
-0.050
-0.065
-0.070
-0.075
-0.070
-0.065
-0.060
-0.050
-0.045
-0.035
-0.030
-0.025
-0.020
-0.015
-0.010
-0.010
-0.015
-0.020
-0.030
-0.040
-0.055
-0.065
-0.080
-0.085
-0.085
-0.080
-0.070
-0.060
-0.050
-0.040
-0.035
-0.035
-0.040
-0.045
-0.050
-0.055
-0.055
-0.050
-0.045
-0.035
-0.025
-0.020
-0.010
-0.010
-0.010
-0.010
-0.015
-0.020
-0.030
-0.040
-0.045
-0.055
-0.060
-0.070
-0.070
-0.070
-0.070
-0.070
-0.065
-0.060
-0.055
-0.050
-0.045
-0.040
-0.035
-0.025
-0.020
-0.015
-0.015
-0.015
-0.020
-0.025
-0.040
-0.050
-0.060
-0.070
-0.070
-0.070
-0.065
-0.060
-0.055
-0.050
-0.050
-0.050
-0.050
-0.055
-0.055
-0.050
-0.045
-0.040
-0.035
-0.030
-0.025
-0.025
-0.030
-0.035
-0.045
-0.050
-0.055
-0.055
-0.050
-0.045
-0.040
-0.035
-0.035
-0.035
-0.035
-0.040
-0.045
-0.050
-0.050
-0.045
-0.040
-0.030
-0.020
-0.015
-0.010
-0.005
-0.010
-0.020
-0.030
-0.045
-0.055
-0.060
-0.055
-0.050
-0.040
-0.025
-0.010
0.005
0.010
0.015
0.010
0.005
-0.005
-0.010
-0.015
-0.020
-0.015
-0.015
-0.010
-0.010
-0.015
-0.020
-0.030
-0.040
-0.045
-0.050
-0.045
-0.040
-0.030
-0.020
-0.015
-0.015
-0.020
-0.030
-0.040
-0.055
-0.065
-0.070
-0.065
-0.055
-0.045
-0.030
-0.020
-0.015
-0.020
-0.030
-0.045
-0.060
-0.070
-0.075
-0.075
-0.065
-0.055
-0.050
-0.040
-0.045
-0.050
-0.060
-0.070
-0.080
-0.085
-0.085
-0.080
-0.075
-0.070
-0.070
-0.075
-0.085
-0.100
-0.115
-0.120
-0.110
-0.080
-0.030
0.045
0.145
0.255
0.380
0.505
0.620
0.715
0.785
0.820
0.820
0.780
0.700
0.595
0.470
0.340
0.215
0.110
0.025
-0.025
-0.055
-0.060
-0.050
-0.040
-0.030
-0.025
-0.030
-0.040
-0.050
-0.065
-0.075
-0.075
-0.070
-0.065
-0.050
-0.040
-0.035
-0.030
-0.025
-0.030
-0.035
-0.040
-0.045
-0.050
-0.055
-0.055
-0.055
-0.055
-0.050
-0.050
-0.045
-0.040
-0.035
-0.030
-0.030
-0.030
-0.030
-0.030
-0.035
-0.035
-0.040
-0.040
-0.040
-0.040
-0.045
-0.045
-0.050
-0.050
-0.055
-0.055
-0.050
-0.050
-0.050
-0.045
-0.050
-0.050
-0.055
-0.060
-0.065
-0.065
-0.065
-0.065
-0.055
-0.050
-0.040
-0.030
-0.025
-0.015
-0.015
-0.010
-0.010
-0.005
-0.005
-0.005
-0.010
-0.015
-0.020
-0.025
-0.035
-0.040
-0.040
-0.040
-0.030
-0.020
-0.010
0.005
0.015
0.020
0.025
0.025
0.025
0.025
0.020
0.025
0.030
0.035
0.045
0.055
0.065
0.075
0.080
0.080
0.080
0.080
0.085
0.085
0.090
0.095
0.100
0.100
0.105
0.105
0.105
0.100
0.100
0.100
0.105
0.115
0.125
0.140
0.155
0.165
0.170
0.170
0.165
0.155
0.145
0.130
0.115
0.110
0.105
0.105
0.105
0.105
0.100
0.095
0.080
0.065
0.045
0.030
0.015
0.005
-0.005
-0.005
-0.005
0.000
0.000
-0.005
-0.010
-0.020
-0.030
-0.045
-0.055
-0.060
-0.065
-0.065
-0.065
-0.060
-0.060
-0.060
-0.065
-0.070
-0.075
-0.080
-0.085
-0.085
-0.085
-0.080
-0.075
-0.075
-0.075
-0.075
-0.080
-0.085
-0.090
-0.090
-0.085
-0.080
-0.075
-0.065
-0.060
-0.055
-0.060
-0.065
-0.075
-0.085
-0.095
-0.095
-0.095
-0.095
-0.090
-0.085
-0.080
-0.085
-0.095
-0.105
-0.115
-0.120
-0.120
-0.110
-0.095
-0.070
-0.050
-0.030
-0.020
-0.020
-0.030
-0.050
-0.070
-0.095
-0.110
-0.120
-0.115
-0.110
-0.095
-0.075
-0.060
-0.050
-0.045
-0.045
-0.050
-0.060
-0.065
-0.075
-0.080
-0.080
-0.080
-0.085
-0.085
-0.085
-0.090
-0.090
-0.090
-0.090
-0.090
-0.085
-0.080
-0.075
-0.075
-0.070
-0.075
-0.075
-0.085
-0.090
-0.095
-0.100
-0.100
-0.100
-0.100
-0.095
-0.090
-0.085
-0.080
-0.080
-0.080
-0.080
-0.080
-0.080
-0.080
-0.075
-0.070
-0.065
-0.060
-0.055
-0.055
-0.050
-0.050
-0.050
-0.055
-0.060
-0.065
-0.075
-0.085
-0.090
-0.095
-0.095
-0.090
-0.085
-0.075
-0.065
-0.055
-0.055
-0.055
-0.060
-0.070
-0.080
-0.085
-0.085
-0.075
-0.065
-0.050
-0.035
-0.020
-0.010
-0.010
-0.015
-0.030
-0.040
-0.055
-0.065
-0.070
-0.065
-0.055
-0.045
-0.030
-0.020
-0.010
-0.010
-0.010
-0.015
-0.015
-0.020
-0.025
-0.020
-0.015
-0.010
-0.005
0.000
0.000
0.000
-0.010
-0.020
-0.030
-0.045
-0.055
-0.065
-0.070
-0.070
-0.070
-0.070
-0.075
-0.075
-0.080
-0.090
-0.095
-0.105
-0.105
-0.105
-0.100
-0.090
-0.080
-0.075
-0.070
-0.065
-0.070
-0.080
-0.085
-0.090
-0.095
-0.090
-0.085
-0.080
-0.075
-0.075
-0.075
-0.080
-0.085
-0.090
-0.090
-0.090
-0.085
-0.085
-0.085
-0.090
-0.105
-0.120
-0.140
-0.155
-0.160
-0.145
-0.110
-0.045
0.040
0.145
0.265
0.395
0.520
0.640
0.740
0.810
0.855
0.860
0.830
0.770
0.675
0.560
0.435
0.310
0.200
0.100
0.030
-0.015
-0.040
-0.045
-0.040
-0.030
-0.020
-0.015
-0.015
-0.020
-0.030
-0.040
-0.050
-0.055
-0.055
-0.055
-0.050
-0.050
-0.050
-0.045
-0.050
-0.050
-0.050
-0.050
-0.050
-0.050
-0.050
-0.045
-0.045
-0.040
-0.040
-0.040
-0.040
-0.045
-0.045
-0.045
-0.050
-0.050
-0.055
-0.055
-0.055
-0.050
-0.045
-0.035
-0.025
-0.015
-0.005
0.005
0.010
0.005
0.000
-0.010
-0.025
-0.040
-0.055
-0.060
-0.065
-0.060
-0.050
-0.035
-0.025
-0.010
0.000
0.005
0.005
0.000
-0.005
-0.015
-0.025
-0.025
-0.030
-0.025
-0.020
-0.015
-0.005
0.000
0.005
0.005
0.000
0.000
-0.005
-0.005
-0.005
-0.005
0.000
0.010
0.020
0.030
0.040
0.045
0.045
0.045
0.040
0.040
0.035
0.040
0.045
0.055
0.070
0.085
0.100
0.110
0.115
0.120
0.115
0.105
0.100
0.095
0.095
0.095
0.105
0.120
0.135
0.150
0.165
0.180
0.190
0.195
0.200
0.200
0.200
0.195
0.195
0.190
0.185
0.185
0.180
0.180
0.175
0.175
0.175
0.170
0.165
0.155
0.145
0.135
0.120
0.110
0.105
0.095
0.090
0.090
0.085
0.080
0.075
0.065
0.050
0.035
0.020
0.000
-0.020
-0.040
-0.055
-0.065
-0.070
-0.070
-0.065
-0.050
-0.040
-0.025
-0.015
-0.010
-0.010
-0.010
-0.015
-0.020
-0.025
-0.025
-0.025
-0.025
-0.020
-0.025
-0.030
-0.035
-0.045
-0.055
-0.065
-0.065
-0.060
-0.050
-0.035
-0.020
-0.010
-0.005
-0.010
-0.020
-0.035
-0.055
-0.070
-0.080
-0.085
-0.080
-0.070
-0.055
-0.040
-0.030
-0.025
-0.025
-0.035
-0.050
-0.065
-0.075
-0.085
-0.085
-0.080
-0.070
-0.055
-0.040
-0.030
-0.025
-0.020
-0.025
-0.035
-0.040
-0.045
-0.050
-0.050
-0.050
-0.045
-0.040
-0.035
-0.035
-0.040
-0.050
-0.060
-0.070
-0.080
-0.085
-0.085
-0.085
-0.080
-0.070
-0.065
-0.055
-0.050
-0.045
-0.045
-0.045
-0.050
-0.055
-0.055
-0.060
-0.060
-0.055
-0.045
-0.040
-0.030
-0.025
-0.020
-0.020
-0.025
-0.030
-0.040
-0.050
-0.055
-0.055
-0.050
-0.045
-0.040
-0.035
-0.030
-0.025
-0.025
-0.025
-0.025
-0.025
-0.025
-0.025
-0.030
-0.035
-0.040
-0.050
-0.060
-0.065
-0.070
-0.070
-0.065
-0.060
-0.050
-0.040
-0.035
-0.035
-0.045
-0.055
-0.065
-0.080
-0.085
-0.090
-0.085
-0.075
-0.065
-0.050
-0.035
-0.030
-0.025
-0.025
-0.030
-0.035
-0.035
-0.040
-0.040
-0.040
-0.035
-0.035
-0.030
-0.030
-0.035
-0.035
-0.040
-0.045
-0.050
-0.055
-0.055
-0.055
-0.050
-0.050
-0.040
-0.035
-0.035
-0.035
-0.035
-0.035
-0.040
-0.045
-0.050
-0.050
-0.050
-0.045
-0.040
-0.035
-0.025
-0.015
-0.005
0.005
0.015
0.025
0.030
0.035
0.035
0.030
0.025
0.020
0.010
0.000
-0.005
-0.010
-0.015
-0.015
-0.020
-0.025
-0.035
-0.040
-0.045
-0.050
-0.050
-0.050
-0.045
-0.040
-0.035
-0.035
-0.035
-0.040
-0.050
-0.055
-0.065
-0.075
-0.075
-0.080
-0.075
-0.070
-0.065
-0.065
-0.065
-0.065
-0.070
-0.075
-0.080
-0.080
-0.075
-0.065
-0.055
-0.045
-0.035
-0.025
-0.020
-0.020
-0.025
-0.035
-0.045
-0.055
-0.065
-0.075
-0.085
-0.090
-0.090
-0.090
-0.080
-0.060
-0.015
0.050
0.140
0.255
0.390
0.540
0.685
0.815
0.910
0.965
0.965
0.915
0.820
0.695
0.550
0.410
0.280
0.175
0.095
0.045
0.020
0.010
0.005
0.010
0.010
0.005
0.000
-0.010
-0.015
-0.025
-0.035
-0.040
-0.040
-0.040
-0.035
-0.030
-0.025
-0.020
-0.015
-0.015
-0.015
-0.020
-0.030
-0.040
-0.050
-0.055
-0.055
-0.050
-0.040
-0.030
-0.025
-0.015
-0.015
-0.020
-0.030
-0.040
-0.050
-0.060
-0.070
-0.070
-0.065
-0.060
-0.050
-0.045
-0.040
-0.035
-0.040
-0.040
-0.045
-0.045
-0.045
-0.040
-0.035
-0.025
-0.015
-0.005
0.005
0.010
0.010
0.010
0.005
-0.005
-0.015
-0.020
-0.030
-0.030
-0.030
-0.030
-0.025
-0.020
-0.015
-0.010
-0.010
-0.005
-0.005
-0.005
-0.005
-0.005
-0.005
-0.005
0.000
0.005
0.010
0.010
0.015
0.020
0.025
0.030
0.035
0.035
0.040
0.040
0.045
0.050
0.055
0.065
0.070
0.080
0.085
0.090
0.095
0.095
0.095
0.095
0.095
0.100
0.105
0.115
0.125
0.135
0.140
0.145
0.145
0.145
0.140
0.140
0.140
0.140
0.150
0.160
0.170
0.180
0.195
0.200
0.205
0.205
0.200
0.195
0.190
0.180
0.175
0.170
0.165
0.160
0.155
0.150
0.140
0.130
0.120
0.105
0.095
0.080
0.065
0.055
0.045
0.035
0.025
0.020
0.015
0.010
0.005
-0.005
-0.010
-0.020
-0.030
-0.040
-0.055
-0.070
-0.080
-0.095
-0.100
-0.105
-0.105
-0.095
-0.085
-0.075
-0.065
-0.060
-0.055
-0.055
-0.060
-0.065
-0.065
-0.070
-0.065
-0.060
-0.050
-0.040
-0.035
-0.035
-0.040
-0.050
-0.065
-0.075
-0.090
-0.095
-0.095
-0.085
-0.075
-0.060
-0.045
-0.035
-0.035
-0.045
-0.055
-0.070
-0.090
-0.100
-0.110
-0.110
-0.105
-0.095
-0.085
-0.075
-0.075
-0.075
-0.075
-0.080
-0.090
-0.090
-0.090
-0.085
-0.080
-0.070
-0.060
-0.050
-0.050
-0.045
-0.050
-0.050
-0.055
-0.060
-0.065
-0.065
-0.065
-0.065
-0.065
-0.065
-0.065
-0.065
-0.070
-0.070
-0.070
-0.070
-0.070
-0.065
-0.065
-0.065
-0.070
-0.075
-0.080
-0.080
-0.085
-0.080
-0.080
-0.075
-0.070
-0.065
-0.065
-0.065
-0.065
-0.070
-0.075
-0.075
-0.075
-0.070
-0.070
-0.065
-0.065
-0.070
-0.075
-0.080
-0.085
-0.090
-0.090
-0.085
-0.075
-0.065
-0.055
-0.050
-0.050
-0.060
-0.070
-0.080
-0.090
-0.100
-0.100
-0.100
-0.095
-0.085
-0.075
-0.070
-0.070
-0.075
-0.080
-0.090
-0.095
-0.100
-0.100
-0.100
-0.095
-0.090
-0.085
-0.080
-0.080
-0.080
-0.080
-0.080
-0.080
-0.075
-0.070
-0.060
-0.055
-0.050
-0.045
-0.045
-0.050
-0.055
-0.060
-0.065
-0.070
-0.065
-0.065
-0.060
-0.055
-0.055
-0.060
-0.065
-0.075
-0.085
-0.095
-0.105
-0.105
-0.105
-0.100
-0.095
-0.085
-0.080
-0.075
-0.075
-0.070
-0.070
-0.070
-0.065
-0.055
-0.045
-0.035
-0.025
-0.015
-0.010
-0.005
-0.005
-0.005
-0.010
-0.010
-0.010
-0.010
-0.010
-0.010
-0.005
0.000
0.000
0.005
0.005
0.005
0.000
-0.005
-0.015
-0.025
-0.040
-0.050
-0.055
-0.055
-0.055
-0.050
-0.040
-0.035
-0.035
-0.040
-0.050
-0.065
-0.075
-0.085
-0.085
-0.080
-0.070
-0.055
-0.045
-0.035
-0.030
-0.035
-0.040
-0.055
-0.065
-0.070
-0.070
-0.065
-0.050
-0.040
-0.025
-0.020
-0.015
-0.020
-0.030
-0.040
-0.050
-0.060
-0.060
-0.060
-0.055
-0.050
-0.045
-0.045
-0.045
-0.055
-0.065
-0.075
-0.090
-0.105
-0.115
-0.110
-0.090
-0.045
0.020
0.115
0.240
0.380
0.530
0.675
0.805
0.900
0.960
0.970
0.930
0.850
0.735
0.600
0.455
0.320
0.200
0.100
0.030
-0.015
-0.035
-0.040
-0.035
-0.025
-0.010
0.005
0.010
0.010
0.005
-0.005
-0.020
-0.035
-0.055
-0.070
-0.080
-0.090
-0.090
-0.085
-0.080
-0.065
-0.055
-0.040
-0.025
-0.015
-0.010
-0.005
-0.010
-0.020
-0.030
-0.040
-0.050
-0.055
-0.060
-0.060
-0.060
-0.055
-0.055
-0.050
-0.050
-0.050
-0.050
-0.050
-0.050
-0.050
-0.050
-0.050
-0.045
-0.045
-0.040
-0.035
-0.030
-0.020
-0.015
-0.010
-0.005
0.000
-0.005
-0.010
-0.015
-0.025
-0.035
-0.040
-0.035
-0.030
-0.020
-0.005
0.010
0.020
0.025
0.025
0.020
0.010
0.000
-0.010
-0.020
-0.025
-0.025
-0.020
-0.010
-0.005
0.005
0.010
0.010
0.010
0.010
0.005
0.005
0.010
0.015
0.020
0.030
0.040
0.050
0.055
0.060
0.060
0.060
0.065
0.065
0.070
0.075
0.085
0.095
0.105
0.115
0.120
0.125
0.125
0.125
0.125
0.125
0.130
0.130
0.140
0.145
0.155
0.160
0.165
0.170
0.175
0.185
0.190
0.195
0.200
0.200
0.200
0.200
0.190
0.180
0.170
0.160
0.145
0.135
0.125
0.115
0.110
0.105
0.095
0.090
0.085
0.080
0.075
0.070
0.065
0.055
0.045
0.035
0.020
0.010
-0.005
-0.015
-0.025
-0.030
-0.030
-0.030
-0.030
-0.025
-0.025
-0.020
-0.020
-0.020
-0.015
-0.015
-0.020
-0.025
-0.030
-0.040
-0.050
-0.060
-0.065
-0.070
-0.070
-0.070
-0.065
-0.060
-0.060
-0.060
-0.060
-0.065
-0.070
-0.075
-0.075
-0.070
-0.065
-0.055
-0.045
-0.040
-0.040
-0.045
-0.050
-0.060
-0.065
-0.070
-0.070
-0.060
-0.050
-0.040
-0.035
-0.030
-0.030
-0.040
-0.050
-0.065
-0.080
-0.095
-0.100
-0.100
-0.095
-0.085
-0.075
-0.065
-0.060
-0.055
-0.055
-0.060
-0.070
-0.075
-0.085
-0.085
-0.080
-0.075
-0.065
-0.055
-0.045
-0.040
-0.035
-0.035
-0.040
-0.045
-0.055
-0.060
-0.065
-0.070
-0.070
-0.070
-0.070
-0.070
-0.070
-0.070
-0.070
-0.070
-0.070
-0.070
-0.065
-0.055
-0.050
-0.040
-0.030
-0.020
-0.015
-0.015
-0.020
-0.025
-0.030
-0.045
-0.055
-0.065
-0.075
-0.080
-0.085
-0.085
-0.080
-0.075
-0.070
-0.070
-0.065
-0.065
-0.060
-0.060
-0.060
-0.060
-0.055
-0.055
-0.050
-0.050
-0.050
-0.055
-0.060
-0.060
-0.065
-0.070
-0.065
-0.065
-0.060
-0.055
-0.045
-0.040
-0.040
-0.040
-0.040
-0.045
-0.055
-0.060
-0.065
-0.070
-0.070
-0.070
-0.070
-0.065
-0.060
-0.055
-0.055
-0.055
-0.055
-0.055
-0.060
-0.060
-0.055
-0.050
-0.045
-0.040
-0.035
-0.030
-0.030
-0.035
-0.040
-0.050
-0.065
-0.075
-0.085
-0.090
-0.090
-0.085
-0.070
-0.055
-0.040
-0.025
-0.020
-0.015
-0.020
-0.025
-0.035
-0.045
-0.050
-0.050
-0.045
-0.035
-0.020
-0.010
0.005
0.015
0.020
0.025
0.020
0.015
0.010
0.000
-0.005
-0.015
-0.020
-0.025
-0.025
-0.025
-0.020
-0.020
-0.015
-0.015
-0.015
-0.015
-0.020
-0.030
-0.035
-0.045
-0.050
-0.050
-0.050
-0.050
-0.050
-0.050
-0.050
-0.055
-0.065
-0.075
-0.085
-0.090
-0.095
-0.090
-0.085
-0.080
-0.075
-0.065
-0.065
-0.065
-0.070
-0.075
-0.080
-0.085
-0.085
-0.080
-0.070
-0.060
-0.050
-0.040
-0.030
-0.025
-0.025
-0.025
-0.025
-0.030
-0.040
-0.050
-0.065
-0.080
-0.100
-0.115
-0.125
-0.125
-0.115
-0.085
-0.040
0.030
0.120
0.225
0.345
0.470
0.595
0.705
0.790
0.845
0.865
0.840
0.770
0.670
0.545
0.410
0.275
0.155
0.060
-0.005
-0.045
-0.060
-0.055
-0.040
-0.025
-0.010
-0.005
-0.005
-0.010
-0.020
-0.030
-0.040
-0.040
-0.040
-0.040
-0.035
-0.030
-0.030
-0.030
-0.035
-0.040
-0.045
-0.050
-0.055
-0.060
-0.060
-0.055
-0.050
-0.045
-0.040
-0.035
-0.030
-0.030
-0.035
-0.040
-0.050
-0.060
-0.065
-0.070
-0.070
-0.065
-0.055
-0.040
-0.025
-0.015
0.000
0.005
0.005
0.005
-0.005
-0.010
-0.020
-0.025
-0.030
-0.030
-0.030
-0.025
-0.025
-0.025
-0.030
-0.035
-0.040
-0.045
-0.050
-0.045
-0.040
-0.035
-0.020
-0.010
0.000
0.005
0.005
0.005
0.000
0.000
-0.005
0.000
0.005
0.010
0.020
0.025
0.030
0.025
0.020
0.015
0.005
0.000
0.000
0.010
0.020
0.035
0.050
0.065
0.070
0.075
0.070
0.065
0.060
0.055
0.055
0.060
0.065
0.075
0.085
0.095
0.095
0.095
0.095
0.090
0.090
0.090
0.095
0.105
0.120
0.130
0.145
0.160
0.170
0.175
0.175
0.175
0.170
0.170
0.170
0.175
0.180
0.190
0.195
0.200
0.205
0.205
0.200
0.190
0.180
0.165
0.155
0.140
0.130
0.120
0.110
0.100
0.090
0.075
0.055
0.035
0.015
0.000
-0.015
-0.020
-0.025
-0.020
-0.010
0.000
0.010
0.015
0.020
0.020
0.010
0.000
-0.010
-0.025
-0.040
-0.050
-0.055
-0.055
-0.055
-0.050
-0.045
-0.040
-0.030
-0.025
-0.015
-0.015
-0.015
-0.015
-0.020
-0.030
-0.040
-0.055
-0.065
-0.070
-0.070
-0.070
-0.065
-0.055
-0.045
-0.035
-0.030
-0.030
-0.030
-0.040
-0.050
-0.060
-0.070
-0.075
-0.075
-0.070
-0.060
-0.045
-0.035
-0.025
-0.020
-0.020
-0.020
-0.025
-0.030
-0.030
-0.030
-0.035
-0.035
-0.035
-0.035
-0.040
-0.045
-0.050
-0.055
-0.050
-0.050
-0.040
-0.030
-0.020
-0.010
-0.010
-0.010
-0.020
-0.030
-0.040
-0.055
-0.060
-0.065
-0.060
-0.060
-0.055
-0.050
-0.045
-0.045
-0.050
-0.055
-0.060
-0.065
-0.065
-0.070
-0.065
-0.065
-0.060
-0.055
-0.050
-0.050
-0.055
-0.055
-0.065
-0.070
-0.080
-0.085
-0.090
-0.085
-0.080
-0.070
-0.060
-0.050
-0.040
-0.035
-0.035
-0.040
-0.045
-0.050
-0.055
-0.055
-0.050
-0.050
-0.050
-0.050
-0.055
-0.060
-0.075
-0.080
-0.090
-0.090
-0.085
-0.075
-0.065
-0.050
-0.040
-0.035
-0.035
-0.045
-0.055
-0.065
-0.070
-0.075
-0.075
-0.070
-0.060
-0.050
-0.045
-0.035
-0.030
-0.025
-0.020
-0.020
-0.015
-0.015
-0.015
-0.015
-0.025
-0.030
-0.045
-0.055
-0.060
-0.070
-0.070
-0.070
-0.070
-0.070
-0.070
-0.070
-0.075
-0.085
-0.090
-0.100
-0.105
-0.110
-0.110
-0.115
-0.115
-0.110
-0.110
-0.105
-0.100
-0.095
-0.085
-0.075
-0.070
-0.065
-0.065
-0.070
-0.080
-0.095
-0.110
-0.120
-0.125
-0.130
-0.125
-0.115
-0.105
-0.095
-0.085
-0.085
-0.085
-0.090
-0.100
-0.110
-0.125
-0.130
-0.140
-0.140
-0.135
-0.120
-0.095
-0.055
0.000
0.070
0.165
0.275
0.395
0.515
0.625
0.715
0.775
0.790
0.765
0.700
0.595
0.475
0.340
0.215
0.105
0.025
-0.035
-0.060
-0.070
-0.060
-0.045
-0.025
-0.010
0.000
0.005
0.005
0.000
-0.010
-0.025
-0.035
-0.050
-0.060
-0.065
-0.070
-0.070
-0.070
-0.065
-0.055
-0.050
-0.045
-0.045
-0.045
-0.045
-0.045
-0.050
-0.050
-0.050
-0.050
-0.045
-0.045
-0.040
-0.040
-0.035
-0.035
-0.035
-0.040
-0.040
-0.045
-0.045
-0.045
-0.045
-0.040
-0.040
-0.035
-0.040
-0.040
-0.045
-0.050
-0.055
-0.055
-0.055
-0.055
-0.045
-0.035
-0.025
-0.020
-0.015
-0.020
-0.025
-0.040
-0.050
-0.065
-0.070
-0.065
-0.055
-0.035
-0.010
0.010
0.025
0.035
0.035
0.025
0.010
-0.005
-0.015
-0.020
-0.020
-0.010
0.000
0.015
0.030
0.035
0.035
0.035
0.025
0.015
0.010
0.005
0.005
0.010
0.020
0.035
0.045
0.050
0.060
0.060
0.065
0.065
0.070
0.075
0.080
0.090
0.095
0.105
0.110
0.115
0.115
0.120
0.120
0.120
0.120
0.125
0.130
0.135
0.140
0.145
0.155
0.165
0.170
0.180
0.185
0.185
0.185
0.180
0.170
0.160
0.145
0.135
0.130
0.125
0.130
0.135
0.140
0.145
0.140
0.130
0.115
0.090
0.060
0.030
0.000
-0.020
-0.030
-0.030
-0.020
-0.010
0.000
0.010
0.005
-0.005
-0.025
-0.050
-0.075
-0.095
-0.105
-0.110
-0.105
-0.095
-0.080
-0.070
-0.065
-0.065
-0.070
-0.080
-0.090
-0.095
-0.095
-0.085
-0.075
-0.060
-0.040
-0.030
-0.025
-0.025
-0.030
-0.040
-0.050
-0.060
-0.060
-0.060
-0.050
-0.040
-0.025
-0.020
-0.020
-0.025
-0.040
-0.060
-0.080
-0.100
-0.115
-0.115
-0.110
-0.090
-0.070
-0.045
-0.025
-0.015
-0.015
-0.020
-0.035
-0.050
-0.065
-0.080
-0.080
-0.080
-0.070
-0.060
-0.055
-0.050
-0.050
-0.050
-0.055
-0.065
-0.065
-0.065
-0.055
-0.045
-0.035
-0.025
-0.020
-0.020
-0.025
-0.040
-0.055
-0.065
-0.075
-0.080
-0.080
-0.075
-0.065
-0.055
-0.045
-0.040
-0.040
-0.040
-0.045
-0.045
-0.045
-0.045
-0.040
-0.035
-0.030
-0.030
-0.035
-0.045
-0.055
-0.070
-0.080
-0.085
-0.085
-0.085
-0.075
-0.065
-0.055
-0.055
-0.055
-0.060
-0.070
-0.080
-0.090
-0.090
-0.085
-0.075
-0.055
-0.040
-0.025
-0.015
-0.015
-0.020
-0.035
-0.055
-0.070
-0.080
-0.080
-0.075
-0.060
-0.045
-0.030
-0.015
-0.010
-0.010
-0.015
-0.030
-0.040
-0.050
-0.060
-0.055
-0.050
-0.035
-0.020
-0.005
0.010
0.025
0.030
0.035
0.030
0.025
0.020
0.010
0.000
-0.010
-0.015
-0.020
-0.025
-0.025
-0.025
-0.025
-0.025
-0.025
-0.025
-0.025
-0.030
-0.030
-0.035
-0.040
-0.045
-0.055
-0.060
-0.070
-0.080
-0.085
-0.090
-0.095
-0.095
-0.090
-0.080
-0.075
-0.070
-0.060
-0.060
-0.055
-0.055
-0.055
-0.060
-0.060
-0.060
-0.060
-0.060
-0.060
-0.060
-0.060
-0.060
-0.060
-0.060
-0.060
-0.060
-0.060
-0.065
-0.070
-0.085
-0.100
-0.120
-0.140
-0.155
-0.155
-0.145
-0.115
-0.060
0.020
0.120
0.240
0.370
0.500
0.625
0.735
0.815
0.860
0.870
0.840
0.775
0.680
0.565
0.440
0.315
0.200
0.105
0.030
-0.015
-0.040
-0.045
-0.035
-0.020
-0.005
0.005
0.005
-0.005
-0.020
-0.040
-0.055
-0.070
-0.075
-0.075
-0.065
-0.055
-0.045
-0.035
-0.035
-0.035
-0.045
-0.055
-0.065
-0.075
-0.075
-0.075
-0.065
-0.055
-0.045
-0.035
-0.025
-0.020
-0.015
-0.020
-0.025
-0.030
-0.040
-0.045
-0.045
-0.050
-0.045
-0.040
-0.035
-0.025
-0.015
-0.010
-0.005
-0.010
-0.015
-0.025
-0.035
-0.050
-0.060
-0.060
-0.060
-0.055
-0.040
-0.025
-0.010
0.000
0.010
0.015
0.015
0.010
0.000
-0.005
-0.015
-0.020
-0.025
-0.025
-0.020
-0.020
-0.015
-0.005
0.000
0.010
0.015
0.025
0.030
0.035
0.035
0.035
0.035
0.035
0.035
0.035
0.040
0.040
0.045
0.050
0.055
0.060
0.065
0.070
0.075
0.075
0.075
0.070
0.070
0.070
0.070
0.070
0.075
0.080
0.090
0.105
0.115
0.125
0.135
0.140
0.140
0.135
0.135
0.130
0.130
0.135
0.140
0.150
0.155
0.165
0.175
0.180
0.180
0.180
0.175
0.175
0.170
0.170
0.170
0.170
0.165
0.160
0.155
0.145
0.130
0.115
0.100
0.080
0.065
0.050
0.040
0.025
0.015
0.005
-0.010
-0.025
-0.035
-0.045
-0.050
-0.055
-0.050
-0.050
-0.045
-0.040
-0.035
-0.035
-0.040
-0.045
-0.050
-0.055
-0.055
-0.060
-0.060
-0.060
-0.060
-0.060
-0.065
-0.075
-0.085
-0.090
-0.090
-0.090
-0.080
-0.070
-0.055
-0.040
-0.035
-0.030
-0.040
-0.050
-0.065
-0.085
-0.095
-0.100
-0.100
-0.090
-0.075
-0.060
-0.050
-0.040
-0.040
-0.045
-0.055
-0.065
-0.075
-0.080
-0.080
-0.075
-0.070
-0.055
-0.045
-0.040
-0.035
-0.040
-0.040
-0.050
-0.055
-0.060
-0.060
-0.060
-0.060
-0.055
-0.055
-0.050
-0.050
-0.050
-0.045
-0.045
-0.045
-0.045
-0.045
-0.050
-0.050
-0.055
-0.060
-0.065
-0.065
-0.065
-0.060
-0.055
-0.055
-0.050
-0.050
-0.055
-0.065
-0.075
-0.085
-0.090
-0.095
-0.090
-0.080
-0.065
-0.055
-0.045
-0.045
-0.050
-0.060
-0.080
-0.100
-0.115
-0.125
-0.125
-0.120
-0.110
-0.095
-0.085
-0.075
-0.070
-0.070
-0.075
-0.080
-0.085
-0.090
-0.085
-0.080
-0.070
-0.065
-0.055
-0.055
-0.055
-0.065
-0.075
-0.085
-0.095
-0.105
-0.110
-0.110
-0.105
-0.095
-0.085
-0.070
-0.055
-0.050
-0.040
-0.040
-0.045
-0.055
-0.070
-0.080
-0.095
-0.100
-0.100
-0.095
-0.085
-0.070
-0.060
-0.045
-0.035
-0.030
-0.030
-0.030
-0.035
-0.035
-0.035
-0.035
-0.030
-0.020
-0.015
-0.010
-0.005
-0.005
-0.010
-0.020
-0.030
-0.040
-0.050
-0.060
-0.070
-0.080
-0.085
-0.090
-0.095
-0.090
-0.090
-0.085
-0.075
-0.070
-0.060
-0.050
-0.045
-0.040
-0.040
-0.040
-0.045
-0.050
-0.060
-0.070
-0.075
-0.080
-0.085
-0.090
-0.090
-0.095
-0.095
-0.095
-0.100
-0.100
-0.100
-0.105
-0.100
-0.100
-0.095
-0.090
-0.085
-0.080
-0.080
-0.075
-0.075
-0.080
-0.090
-0.100
-0.110
-0.125
-0.135
-0.145
-0.155
-0.155
-0.145
-0.130
-0.095
-0.045
0.025
0.115
0.225
0.350
0.480
0.615
0.735
0.830
0.895
0.920
0.900
0.835
0.735
0.605
0.465
0.320
0.195
0.090
0.015
-0.025
-0.045
-0.045
-0.035
-0.025
-0.015
-0.010
-0.015
-0.020
-0.030
-0.040
-0.040
-0.045
-0.040
-0.035
-0.030
-0.025
-0.025
-0.030
-0.030
-0.035
-0.035
-0.035
-0.035
-0.035
-0.030
-0.030
-0.030
-0.035
-0.035
-0.040
-0.040
-0.040
-0.040
-0.040
-0.040
-0.045
-0.050
-0.055
-0.060
-0.065
-0.060
-0.055
-0.045
-0.030
-0.020
-0.005
0.000
0.000
-0.010
-0.020
-0.030
-0.045
-0.055
-0.060
-0.055
-0.050
-0.040
-0.025
-0.015
0.000
0.005
0.010
0.010
0.005
0.000
-0.005
-0.010
-0.015
-0.015
-0.020
-0.015
-0.010
-0.005
0.000
0.010
0.015
0.020
0.020
0.025
0.025
0.025
0.025
0.030
0.035
0.040
0.045
0.050
0.045
0.040
0.035
0.025
0.020
0.015
0.020
0.030
0.045
0.070
0.090
0.110
0.130
0.135
0.140
0.135
0.125
0.115
0.105
0.100
0.100
0.110
0.120
0.130
0.145
0.160
0.170
0.180
0.185
0.190
0.195
0.200
0.200
0.205
0.205
0.210
0.205
0.205
0.205
0.200
0.200
0.195
0.195
0.190
0.180
0.170
0.160
0.140
0.125
0.110
0.095
0.085
0.085
0.085
0.085
0.085
0.080
0.075
0.060
0.040
0.020
0.000
-0.015
-0.025
-0.030
-0.025
-0.020
-0.015
-0.010
-0.010
-0.010
-0.015
-0.020
-0.030
-0.040
-0.050
-0.055
-0.060
-0.060
-0.060
-0.060
-0.055
-0.050
-0.050
-0.045
-0.045
-0.045
-0.050
-0.055
-0.060
-0.065
-0.065
-0.070
-0.070
-0.065
-0.060
-0.060
-0.055
-0.055
-0.055
-0.055
-0.060
-0.060
-0.065
-0.065
-0.065
-0.065
-0.060
-0.060
-0.055
-0.050
-0.050
-0.050
-0.045
-0.045
-0.045
-0.045
-0.045
-0.050
-0.055
-0.060
-0.065
-0.070
-0.075
-0.070
-0.065
-0.060
-0.050
-0.045
-0.040
-0.040
-0.045
-0.055
-0.065
-0.080
-0.090
-0.095
-0.100
-0.095
-0.090
-0.080
-0.075
-0.065
-0.055
-0.055
-0.050
-0.050
-0.050
-0.045
-0.045
-0.045
-0.040
-0.040
-0.040
-0.040
-0.045
-0.055
-0.060
-0.075
-0.085
-0.090
-0.095
-0.095
-0.090
-0.085
-0.075
-0.070
-0.060
-0.060
-0.055
-0.060
-0.065
-0.070
-0.070
-0.075
-0.075
-0.070
-0.065
-0.060
-0.060
-0.055
-0.060
-0.060
-0.065
-0.070
-0.075
-0.075
-0.080
-0.075
-0.075
-0.070
-0.065
-0.060
-0.060
-0.060
-0.060
-0.060
-0.060
-0.060
-0.060
-0.060
-0.060
-0.060
-0.060
-0.060
-0.060
-0.055
-0.055
-0.050
-0.050
-0.050
-0.050
-0.055
-0.060
-0.070
-0.075
-0.080
-0.075
-0.070
-0.060
-0.045
-0.035
-0.025
-0.020
-0.025
-0.030
-0.040
-0.050
-0.055
-0.055
-0.050
-0.035
-0.020
-0.005
0.005
0.015
0.015
0.010
0.000
-0.010
-0.020
-0.030
-0.030
-0.025
-0.020
-0.015
-0.010
-0.005
-0.010
-0.015
-0.025
-0.035
-0.045
-0.060
-0.070
-0.075
-0.080
-0.080
-0.080
-0.075
-0.070
-0.065
-0.060
-0.055
-0.055
-0.055
-0.060
-0.070
-0.080
-0.090
-0.100
-0.105
-0.110
-0.105
-0.100
-0.085
-0.070
-0.055
-0.045
-0.035
-0.035
-0.040
-0.050
-0.065
-0.075
-0.085
-0.090
-0.085
-0.075
-0.065
-0.055
-0.050
-0.055
-0.075
-0.100
-0.130
-0.155
-0.165
-0.155
-0.115
-0.045
0.050
0.175
0.310
0.455
0.595
0.720
0.825
0.895
0.930
0.925
0.880
0.800
0.690
0.555
0.415
0.275
0.150
0.055
-0.015
-0.055
-0.065
-0.055
-0.035
-0.015
0.005
0.015
0.015
0.005
-0.010
-0.025
-0.040
-0.055
-0.060
-0.060
-0.060
-0.055
-0.055
-0.050
-0.045
-0.040
-0.040
-0.035
-0.035
-0.040
-0.045
-0.050
-0.060
-0.070
-0.075
-0.075
-0.075
-0.065
-0.060
-0.050
-0.040
-0.030
-0.030
-0.025
-0.030
-0.035
-0.035
-0.040
-0.040
-0.045
-0.045
-0.045
-0.045
-0.045
-0.045
-0.045
-0.040
-0.040
-0.040
-0.040
-0.040
-0.040
-0.040
-0.040
-0.045
-0.045
-0.045
-0.045
-0.040
-0.030
-0.025
-0.020
-0.015
-0.010
-0.015
-0.015
-0.020
-0.030
-0.030
-0.035
-0.030
-0.025
-0.020
-0.010
0.000
0.005
0.015
0.020
0.020
0.020
0.025
0.025
0.025
0.030
0.035
0.040
0.045
0.050
0.055
0.060
0.065
0.065
0.065
0.065
0.070
0.070
0.075
0.080
0.090
0.095
0.105
0.110
0.120
0.125
0.130
0.130
0.135
0.135
0.135
0.140
0.145
0.150
0.160
0.170
0.185
0.195
0.200
0.200
0.200
0.195
0.190
0.185
0.180
0.175
0.175
0.175
0.175
0.175
0.165
0.155
0.140
0.120
0.105
0.090
0.075
0.065
0.060
0.060
0.055
0.050
0.040
0.025
0.010
-0.010
-0.020
-0.030
-0.030
-0.025
-0.015
-0.010
0.000
0.000
-0.005
-0.020
-0.035
-0.055
-0.070
-0.080
-0.080
-0.075
-0.060
-0.045
-0.030
-0.020
-0.015
-0.020
-0.030
-0.045
-0.060
-0.075
-0.090
-0.095
-0.095
-0.085
-0.075
-0.065
-0.050
-0.040
-0.030
-0.025
-0.025
-0.030
-0.035
-0.045
-0.055
-0.065
-0.075
-0.080
-0.085
-0.085
-0.080
-0.075
-0.070
-0.065
-0.070
-0.070
-0.080
-0.085
-0.090
-0.095
-0.095
-0.090
-0.080
-0.070
-0.060
-0.060
-0.060
-0.070
-0.080
-0.095
-0.105
-0.110
-0.110
-0.100
-0.090
-0.075
-0.065
-0.060
-0.060
-0.065
-0.075
-0.080
-0.090
-0.090
-0.085
-0.075
-0.065
-0.055
-0.050
-0.050
-0.055
-0.065
-0.075
-0.090
-0.095
-0.100
-0.095
-0.090
-0.080
-0.070
-0.065
-0.060
-0.055
-0.060
-0.065
-0.065
-0.070
-0.070
-0.070
-0.070
-0.070
-0.065
-0.065
-0.070
-0.070
-0.075
-0.075
-0.080
-0.080
-0.080
-0.075
-0.075
-0.070
-0.065
-0.060
-0.060
-0.060
-0.055
-0.060
-0.060
-0.060
-0.060
-0.060
-0.060
-0.060
-0.065
-0.065
-0.070
-0.075
-0.080
-0.085
-0.085
-0.090
-0.090
-0.090
-0.085
-0.085
-0.080
-0.080
-0.075
-0.075
-0.075
-0.075
-0.075
-0.075
-0.075
-0.080
-0.080
-0.080
-0.080
-0.080
-0.080
-0.080
-0.075
-0.070
-0.065
-0.060
-0.055
-0.050
-0.045
-0.040
-0.035
-0.030
-0.020
-0.015
-0.015
-0.015
-0.020
-0.025
-0.030
-0.035
-0.035
-0.030
-0.020
-0.010
0.000
0.005
0.010
0.005
-0.005
-0.015
-0.025
-0.035
-0.035
-0.030
-0.020
-0.010
0.000
0.005
0.000
-0.005
-0.020
-0.040
-0.055
-0.070
-0.080
-0.085
-0.085
-0.085
-0.080
-0.075
-0.070
-0.065
-0.065
-0.060
-0.055
-0.055
-0.050
-0.050
-0.050
-0.055
-0.060
-0.070
-0.080
-0.090
-0.095
-0.095
-0.090
-0.075
-0.065
-0.050
-0.040
-0.040
-0.045
-0.055
-0.075
-0.090
-0.100
-0.100
-0.095
-0.085
-0.065
-0.050
-0.040
-0.040
-0.055
-0.080
-0.110
-0.140
-0.160
-0.160
-0.140
-0.090
-0.015
0.085
0.205
0.335
0.470
0.600
0.720
0.815
0.880
0.910
0.905
0.860
0.775
0.660
0.530
0.395
0.265
0.155
0.075
0.020
-0.005
-0.010
-0.005
0.000
0.010
0.005
-0.005
-0.015
-0.030
-0.040
-0.045
-0.045
-0.040
-0.035
-0.035
-0.035
-0.045
-0.050
-0.060
-0.070
-0.070
-0.065
-0.055
-0.040
-0.025
-0.010
-0.005
0.000
-0.005
-0.015
-0.025
-0.035
-0.040
-0.040
-0.035
-0.030
-0.025
-0.020
-0.015
-0.015
-0.015
-0.015
-0.020
-0.020
-0.025
-0.025
-0.025
-0.030
-0.030
-0.030
-0.030
-0.030
-0.030
-0.025
-0.025
-0.025
-0.025
-0.030
-0.030
-0.035
-0.040
-0.045
-0.045
-0.040
-0.035
-0.025
-0.015
-0.005
0.000
0.005
0.005
0.005
0.000
-0.005
-0.005
-0.005
-0.005
0.000
0.010
0.015
0.025
0.030
0.035
0.035
0.035
0.035
0.035
0.035
0.035
0.035
0.040
0.045
0.045
0.050
0.055
0.060
0.065
0.070
0.075
0.075
0.070
0.070
0.065
0.065
0.065
0.065
0.070
0.075
0.085
0.100
0.115
0.125
0.140
0.150
0.160
0.170
0.175
0.180
0.190
0.195
0.200
0.205
0.210
0.210
0.210
0.205
0.200
0.190
0.180
0.170
0.155
0.140
0.120
0.110
0.100
0.095
0.095
0.100
0.105
0.105
0.110
0.100
0.090
0.070
0.045
0.015
-0.010
-0.030
-0.040
-0.050
-0.050
-0.045
-0.040
-0.035
-0.035
-0.035
-0.035
-0.035
-0.035
-0.040
-0.040
-0.040
-0.040
-0.040
-0.040
-0.045
-0.045
-0.045
-0.040
-0.035
-0.030
-0.020
-0.015
-0.010
-0.010
-0.010
-0.020
-0.025
-0.035
-0.045
-0.050
-0.050
-0.055
-0.050
-0.050
-0.045
-0.045
-0.040
-0.040
-0.035
-0.035
-0.035
-0.040
-0.040
-0.045
-0.050
-0.060
-0.065
-0.065
-0.065
-0.065
-0.055
-0.050
-0.040
-0.030
-0.025
-0.015
-0.015
-0.010
-0.010
-0.010
-0.015
-0.015
-0.015
-0.020
-0.025
-0.030
-0.040
-0.045
-0.055
-0.060
-0.060
-0.055
-0.050
-0.040
-0.035
-0.030
-0.025
-0.025
-0.030
-0.035
-0.040
-0.045
-0.050
-0.045
-0.040
-0.035
-0.030
-0.025
-0.025
-0.025
-0.035
-0.045
-0.055
-0.065
-0.070
-0.070
-0.065
-0.055
-0.050
-0.040
-0.035
-0.030
-0.030
-0.030
-0.035
-0.040
-0.040
-0.040
-0.040
-0.040
-0.040
-0.035
-0.035
-0.035
-0.035
-0.040
-0.040
-0.040
-0.040
-0.040
-0.040
-0.040
-0.045
-0.045
-0.050
-0.055
-0.060
-0.070
-0.075
-0.075
-0.075
-0.070
-0.060
-0.050
-0.040
-0.030
-0.025
-0.025
-0.030
-0.035
-0.045
-0.060
-0.070
-0.075
-0.075
-0.065
-0.055
-0.040
-0.025
-0.010
0.000
0.005
0.005
0.000
-0.005
-0.010
-0.015
-0.015
-0.015
-0.010
-0.010
-0.005
-0.005
-0.005
-0.005
-0.005
-0.005
0.000
0.005
0.010
0.015
0.010
0.000
-0.010
-0.030
-0.045
-0.065
-0.075
-0.075
-0.075
-0.065
-0.055
-0.050
-0.045
-0.050
-0.060
-0.075
-0.090
-0.105
-0.115
-0.115
-0.115
-0.105
-0.095
-0.090
-0.085
-0.085
-0.090
-0.095
-0.100
-0.100
-0.100
-0.090
-0.075
-0.060
-0.050
-0.040
-0.035
-0.035
-0.035
-0.045
-0.050
-0.055
-0.055
-0.055
-0.055
-0.060
-0.065
-0.075
-0.095
-0.110
-0.120
-0.120
-0.110
-0.075
-0.020
0.060
0.160
0.275
0.395
0.515
0.620
0.705
0.755
0.775
0.755
0.700
0.610
0.500
0.375
0.250
0.140
0.045
-0.020
-0.060
-0.075
-0.070
-0.055
-0.035
-0.020
-0.010
-0.010
-0.025
-0.040
-0.060
-0.075
-0.085
-0.085
-0.080
-0.070
-0.060
-0.055
-0.050
-0.055
-0.060
-0.065
-0.070
-0.070
-0.065
-0.060
-0.050
-0.045
-0.040
-0.040
-0.045
-0.050
-0.060
-0.070
-0.075
-0.080
-0.080
-0.075
-0.075
-0.075
-0.075
-0.080
-0.080
-0.085
-0.085
-0.080
-0.070
-0.060
-0.045
-0.030
-0.020
-0.010
-0.005
-0.005
-0.015
-0.025
-0.035
-0.050
-0.055
-0.060
-0.060
-0.060
-0.050
-0.040
-0.030
-0.025
-0.020
-0.020
-0.020
-0.025
-0.030
-0.040
-0.040
-0.040
-0.035
-0.030
-0.020
-0.010
0.000
0.010
0.015
0.015
0.015
0.015
0.005
0.000
-0.005
-0.010
-0.015
-0.020
-0.015
-0.010
-0.005
0.005
0.015
0.025
0.035
0.045
0.055
0.060
0.070
0.075
0.085
0.095
0.100
0.105
0.110
0.115
0.115
0.110
0.110
0.105
0.105
0.110
0.115
0.125
0.135
0.140
0.150
0.155
0.155
0.150
0.145
0.140
0.140
0.135
0.140
0.145
0.155
0.160
0.165
0.170
0.165
0.155
0.140
0.125
0.110
0.090
0.080
0.070
0.065
0.060
0.055
0.050
0.040
0.025
0.005
-0.010
-0.025
-0.040
-0.050
-0.050
-0.050
-0.045
-0.040
-0.035
-0.035
-0.040
-0.045
-0.050
-0.060
-0.065
-0.070
-0.075
-0.070
-0.070
-0.070
-0.065
-0.065
-0.065
-0.065
-0.065
-0.070
-0.070
-0.075
-0.080
-0.080
-0.085
-0.090
-0.090
-0.085
-0.080
-0.075
-0.065
-0.055
-0.045
-0.040
-0.035
-0.035
-0.040
-0.045
-0.055
-0.070
-0.080
-0.085
-0.090
-0.090
-0.085
-0.075
-0.065
-0.060
-0.055
-0.055
-0.055
-0.060
-0.060
-0.065
-0.065
-0.060
-0.050
-0.045
-0.040
-0.040
-0.045
-0.055
-0.065
-0.080
-0.090
-0.095
-0.095
-0.085
-0.070
-0.055
-0.045
-0.040
-0.040
-0.050
-0.065
-0.080
-0.090
-0.100
-0.095
-0.085
-0.065
-0.045
-0.030
-0.020
-0.015
-0.020
-0.030
-0.050
-0.060
-0.075
-0.080
-0.075
-0.070
-0.060
-0.050
-0.040
-0.035
-0.040
-0.045
-0.055
-0.070
-0.080
-0.085
-0.090
-0.090
-0.090
-0.085
-0.085
-0.080
-0.080
-0.085
-0.085
-0.090
-0.090
-0.090
-0.085
-0.075
-0.065
-0.055
-0.045
-0.040
-0.035
-0.035
-0.040
-0.050
-0.060
-0.070
-0.075
-0.080
-0.075
-0.070
-0.060
-0.050
-0.040
-0.030
-0.025
-0.020
-0.015
-0.015
-0.015
-0.010
-0.010
-0.010
-0.005
0.000
0.000
0.005
0.005
0.005
0.005
0.005
0.005
0.005
0.005
0.000
-0.005
-0.010
-0.015
-0.015
-0.020
-0.025
-0.030
-0.030
-0.030
-0.035
-0.035
-0.035
-0.035
-0.035
-0.035
-0.035
-0.035
-0.035
-0.030
-0.030
-0.025
-0.025
-0.025
-0.030
-0.035
-0.040
-0.050
-0.055
-0.055
-0.050
-0.045
-0.035
-0.020
-0.010
-0.005
0.000
-0.005
-0.015
-0.025
-0.040
-0.050
-0.060
-0.065
-0.065
-0.065
-0.065
-0.070
-0.075
-0.080
-0.090
-0.095
-0.090
-0.070
-0.040
0.010
0.085
0.175
0.280
0.400
0.520
0.630
0.725
0.790
0.815
0.800
0.745
0.655
0.535
0.405
0.275
0.160
0.065
0.005
-0.035
-0.045
-0.040
-0.030
-0.015
-0.005
0.000
0.000
-0.005
-0.010
-0.020
-0.025
-0.025
-0.025
-0.025
-0.025
-0.030
-0.035
-0.040
-0.050
-0.055
-0.060
-0.060
-0.060
-0.055
-0.050
-0.045
-0.035
-0.030
-0.030
-0.025
-0.025
-0.025
-0.025
-0.025
-0.025
-0.020
-0.020
-0.015
-0.010
-0.010
-0.005
-0.005
-0.005
-0.005
-0.010
-0.010
-0.010
-0.015
-0.010
-0.010
-0.010
-0.010
-0.010
-0.015
-0.020
-0.025
-0.030
-0.030
-0.030
-0.030
-0.025
-0.015
0.000
0.010
0.025
0.035
0.040
0.040
0.035
0.030
0.020
0.010
0.005
0.000
0.000
0.005
0.010
0.020
0.025
0.030
0.030
0.025
0.020
0.015
0.010
0.015
0.020
0.030
0.045
0.055
0.065
0.070
0.070
0.065
0.060
0.055
0.050
0.050
0.055
0.065
0.075
0.090
0.100
0.105
0.110
0.110
0.110
0.110
0.115
0.120
0.125
0.135
0.145
0.150
0.150
0.150
0.150
0.145
0.145
0.145
0.150
0.160
0.170
0.180
0.185
0.185
0.185
0.180
0.170
0.160
0.155
0.145
0.145
0.140
0.135
0.125
0.115
0.100
0.075
0.055
0.035
0.015
0.000
-0.005
-0.010
-0.005
-0.005
0.000
0.005
0.000
0.000
-0.010
-0.015
-0.025
-0.035
-0.040
-0.045
-0.045
-0.045
-0.045
-0.050
-0.050
-0.050
-0.050
-0.050
-0.050
-0.050
-0.055
-0.060
-0.065
-0.070
-0.075
-0.080
-0.080
-0.085
-0.085
-0.080
-0.080
-0.075
-0.075
-0.070
-0.070
-0.065
-0.065
-0.060
-0.050
-0.045
-0.040
-0.040
-0.045
-0.050
-0.055
-0.065
-0.070
-0.075
-0.070
-0.065
-0.055
-0.050
-0.040
-0.035
-0.035
-0.035
-0.040
-0.045
-0.045
-0.050
-0.050
-0.045
-0.045
-0.045
-0.045
-0.050
-0.060
-0.065
-0.070
-0.075
-0.075
-0.070
-0.070
-0.065
-0.065
-0.065
-0.065
-0.065
-0.065
-0.065
-0.065
-0.065
-0.065
-0.065
-0.065
-0.065
-0.070
-0.075
-0.075
-0.075
-0.070
-0.060
-0.055
-0.050
-0.045
-0.050
-0.060
-0.070
-0.085
-0.095
-0.100
-0.100
-0.090
-0.080
-0.065
-0.050
-0.035
-0.025
-0.025
-0.025
-0.035
-0.045
-0.055
-0.065
-0.075
-0.080
-0.080
-0.080
-0.080
-0.080
-0.080
-0.080
-0.085
-0.090
-0.090
-0.095
-0.090
-0.085
-0.080
-0.065
-0.055
-0.045
-0.040
-0.040
-0.040
-0.050
-0.055
-0.065
-0.070
-0.075
-0.075
-0.070
-0.070
-0.065
-0.060
-0.055
-0.050
-0.045
-0.040
-0.035
-0.030
-0.030
-0.030
-0.030
-0.035
-0.035
-0.035
-0.030
-0.025
-0.015
0.000
0.010
0.015
0.015
0.005
-0.010
-0.025
-0.045
-0.060
-0.065
-0.070
-0.065
-0.060
-0.055
-0.050
-0.045
-0.050
-0.050
-0.055
-0.065
-0.070
-0.080
-0.085
-0.090
-0.090
-0.090
-0.090
-0.085
-0.075
-0.065
-0.050
-0.040
-0.035
-0.030
-0.035
-0.050
-0.065
-0.085
-0.100
-0.110
-0.115
-0.110
-0.100
-0.090
-0.075
-0.060
-0.055
-0.050
-0.050
-0.055
-0.065
-0.075
-0.080
-0.090
-0.100
-0.110
-0.120
-0.130
-0.140
-0.145
-0.145
-0.135
-0.110
-0.065
0.000
0.090
0.200
0.330
0.465
0.600
0.720
0.815
0.875
0.890
0.865
0.790
0.685
0.555
0.415
0.280
0.160
0.070
0.005
-0.035
-0.050
-0.050
-0.040
-0.035
-0.030
-0.035
-0.040
-0.050
-0.055
-0.060
-0.060
-0.055
-0.045
-0.040
-0.035
-0.035
-0.040
-0.050
-0.060
-0.070
-0.070
-0.070
-0.060
-0.050
-0.040
-0.030
-0.030
-0.040
-0.055
-0.070
-0.090
-0.100
-0.105
-0.100
-0.085
-0.070
-0.055
-0.045
-0.040
-0.040
-0.050
-0.055
-0.065
-0.065
-0.065
-0.055
-0.050
-0.045
-0.045
-0.055
-0.065
-0.075
-0.085
-0.085
-0.085
-0.070
-0.055
-0.040
-0.025
-0.020
-0.020
-0.025
-0.035
-0.045
-0.055
-0.055
-0.050
-0.040
-0.030
-0.020
-0.015
-0.015
-0.025
-0.030
-0.040
-0.045
-0.045
-0.040
-0.035
-0.025
-0.015
-0.010
-0.010
-0.015
-0.020
-0.020
-0.020
-0.015
-0.005
0.010
0.025
0.040
0.045
0.050
0.045
0.040
0.035
0.035
0.040
0.050
0.065
0.085
0.100
0.115
0.120
0.115
0.105
0.095
0.080
0.075
0.080
0.090
0.110
0.135
0.160
0.180
0.195
0.195
0.190
0.175
0.160
0.145
0.135
0.130
0.135
0.140
0.155
0.165
0.175
0.175
0.170
0.155
0.135
0.115
0.095
0.080
0.065
0.060
0.055
0.055
0.055
0.055
0.050
0.045
0.040
0.030
0.020
0.010
0.000
-0.010
-0.015
-0.025
-0.030
-0.035
-0.040
-0.045
-0.045
-0.045
-0.045
-0.040
-0.035
-0.030
-0.025
-0.020
-0.020
-0.025
-0.025
-0.030
-0.035
-0.040
-0.040
-0.035
-0.035
-0.030
-0.025
-0.025
-0.030
-0.040
-0.050
-0.065
-0.075
-0.080
-0.085
-0.080
-0.070
-0.060
-0.045
-0.035
-0.030
-0.025
-0.025
-0.020
-0.020
-0.020
-0.020
-0.020
-0.020
-0.025
-0.035
-0.045
-0.060
-0.075
-0.085
-0.090
-0.085
-0.075
-0.060
-0.040
-0.025
-0.015
-0.015
-0.020
-0.035
-0.050
-0.065
-0.080
-0.090
-0.090
-0.080
-0.070
-0.055
-0.040
-0.030
-0.030
-0.035
-0.040
-0.055
-0.065
-0.075
-0.080
-0.080
-0.075
-0.070
-0.065
-0.055
-0.050
-0.050
-0.050
-0.055
-0.055
-0.055
-0.050
-0.045
-0.040
-0.040
-0.040
-0.050
-0.060
-0.075
-0.090
-0.105
-0.110
-0.110
-0.105
-0.090
-0.070
-0.050
-0.035
-0.030
-0.025
-0.030
-0.035
-0.045
-0.050
-0.055
-0.050
-0.050
-0.045
-0.040
-0.040
-0.040
-0.050
-0.055
-0.065
-0.075
-0.080
-0.080
-0.080
-0.075
-0.070
-0.060
-0.055
-0.050
-0.050
-0.055
-0.060
-0.065
-0.070
-0.070
-0.070
-0.070
-0.060
-0.055
-0.045
-0.040
-0.035
-0.035
-0.035
-0.035
-0.040
-0.040
-0.045
-0.040
-0.040
-0.035
-0.030
-0.025
-0.025
-0.025
-0.030
-0.030
-0.035
-0.035
-0.040
-0.040
-0.035
-0.035
-0.035
-0.030
-0.030
-0.025
-0.020
-0.015
-0.005
0.005
0.010
0.020
0.020
0.015
0.005
-0.010
-0.025
-0.040
-0.055
-0.060
-0.060
-0.055
-0.050
-0.040
-0.030
-0.025
-0.025
-0.030
-0.035
-0.040
-0.050
-0.050
-0.050
-0.045
-0.040
-0.035
-0.030
-0.030
-0.040
-0.050
-0.065
-0.075
-0.085
-0.090
-0.090
-0.080
-0.070
-0.055
-0.040
-0.035
-0.035
-0.040
-0.055
-0.070
-0.080
-0.090
-0.090
-0.080
-0.070
-0.055
-0.040
-0.035
-0.040
-0.050
-0.070
-0.095
-0.120
-0.135
-0.145
-0.135
-0.110
-0.070
-0.010
0.070
0.165
0.270
0.390
0.515
0.635
0.745
0.835
0.895
0.915
0.890
0.825
0.720
0.590
0.445
0.300
0.170
0.065
-0.005
-0.045
-0.055
-0.050
-0.030
-0.015
-0.005
-0.005
-0.015
-0.030
-0.050
-0.060
-0.065
-0.060
-0.040
-0.020
0.000
0.015
0.020
0.010
-0.005
-0.025
-0.045
-0.065
-0.075
-0.075
-0.065
-0.055
-0.040
-0.030
-0.025
-0.030
-0.035
-0.045
-0.055
-0.065
-0.065
-0.065
-0.055
-0.050
-0.045
-0.040
-0.040
-0.040
-0.045
-0.050
-0.050
-0.050
-0.050
-0.045
-0.040
-0.030
-0.025
-0.015
-0.010
-0.005
0.000
0.000
0.000
-0.005
-0.015
-0.025
-0.030
-0.035
-0.035
-0.030
-0.025
-0.015
-0.010
-0.005
-0.005
-0.010
-0.020
-0.030
-0.035
-0.040
-0.030
-0.020
0.000
0.020
0.045
0.060
0.065
0.070
0.065
0.055
0.045
0.040
0.035
0.035
0.045
0.050
0.060
0.065
0.075
0.075
0.075
0.075
0.075
0.070
0.070
0.075
0.075
0.080
0.080
0.085
0.090
0.100
0.105
0.120
0.130
0.140
0.155
0.165
0.170
0.180
0.180
0.185
0.190
0.195
0.200
0.210
0.220
0.225
0.225
0.225
0.215
0.200
0.185
0.170
0.155
0.145
0.145
0.150
0.155
0.165
0.175
0.175
0.170
0.160
0.140
0.115
0.090
0.065
0.040
0.020
0.010
0.005
0.000
0.000
0.000
0.000
0.000
0.000
0.000
-0.005
-0.005
-0.010
-0.010
-0.015
-0.015
-0.020
-0.020
-0.025
-0.025
-0.030
-0.030
-0.035
-0.040
-0.045
-0.045
-0.045
-0.040
-0.035
-0.030
-0.025
-0.025
-0.030
-0.035
-0.045
-0.055
-0.070
-0.080
-0.090
-0.090
-0.090
-0.080
-0.075
-0.065
-0.060
-0.060
-0.060
-0.065
-0.070
-0.075
-0.075
-0.075
-0.070
-0.060
-0.045
-0.035
-0.030
-0.025
-0.030
-0.040
-0.050
-0.060
-0.070
-0.075
-0.075
-0.070
-0.060
-0.050
-0.040
-0.035
-0.035
-0.040
-0.045
-0.060
-0.070
-0.075
-0.080
-0.080
-0.075
-0.070
-0.065
-0.060
-0.060
-0.065
-0.070
-0.075
-0.075
-0.070
-0.065
-0.060
-0.055
-0.050
-0.050
-0.055
-0.065
-0.080
-0.095
-0.100
-0.100
-0.095
-0.085
-0.070
-0.055
-0.045
-0.040
-0.045
-0.055
-0.070
-0.090
-0.105
-0.115
-0.120
-0.115
-0.100
-0.085
-0.070
-0.055
-0.045
-0.045
-0.045
-0.050
-0.055
-0.065
-0.070
-0.075
-0.075
-0.080
-0.080
-0.085
-0.085
-0.090
-0.095
-0.100
-0.100
-0.100
-0.095
-0.085
-0.075
-0.060
-0.050
-0.045
-0.040
-0.045
-0.055
-0.070
-0.085
-0.100
-0.110
-0.115
-0.110
-0.100
-0.090
-0.075
-0.060
-0.055
-0.050
-0.050
-0.055
-0.060
-0.070
-0.075
-0.075
-0.075
-0.070
-0.070
-0.065
-0.065
-0.065
-0.070
-0.075
-0.080
-0.085
-0.090
-0.090
-0.095
-0.095
-0.095
-0.090
-0.090
-0.085
-0.085
-0.080
-0.080
-0.080
-0.080
-0.080
-0.080
-0.080
-0.075
-0.070
-0.065
-0.055
-0.050
-0.040
-0.030
-0.020
-0.015
-0.015
-0.015
-0.015
-0.015
-0.015
-0.020
-0.020
-0.020
-0.020
-0.020
-0.020
-0.015
-0.005
0.000
0.010
0.015
0.015
0.010
-0.005
-0.020
-0.045
-0.065
-0.085
-0.100
-0.105
-0.100
-0.085
-0.070
-0.050
-0.035
-0.025
-0.025
-0.030
-0.040
-0.055
-0.070
-0.080
-0.090
-0.095
-0.095
-0.090
-0.080
-0.070
-0.060
-0.050
-0.040
-0.035
-0.030
-0.025
-0.030
-0.035
-0.050
-0.060
-0.075
-0.090
-0.095
-0.100
-0.095
-0.085
-0.075
-0.060
-0.050
-0.045
-0.045
-0.055
-0.070
-0.090
-0.110
-0.125
-0.130
-0.125
-0.110
-0.080
-0.035
0.035
0.120
0.230
0.360
0.495
0.635
0.765
0.870
0.940
0.965
0.935
0.860
0.740
0.600
0.450
0.305
0.180
0.090
0.025
-0.005
-0.015
-0.010
0.000
0.010
0.010
0.005
-0.005
-0.020
-0.040
-0.050
-0.055
-0.055
-0.050
-0.040
-0.025
-0.010
0.005
0.010
0.015
0.010
0.005
-0.005
-0.020
-0.035
-0.040
-0.050
-0.050
-0.045
-0.040
-0.035
-0.030
-0.030
-0.030
-0.030
-0.035
-0.040
-0.045
-0.050
-0.050
-0.045
-0.040
-0.030
-0.020
-0.010
0.005
0.010
0.015
0.020
0.015
0.005
-0.010
-0.025
-0.035
-0.045
-0.045
-0.040
-0.025
-0.010
0.005
0.015
0.020
0.020
0.015
0.000
-0.015
-0.025
-0.030
-0.035
-0.030
-0.025
-0.015
-0.005
0.000
0.005
0.010
0.010
0.010
0.015
0.015
0.020
0.025
0.030
0.035
0.040
0.050
0.055
0.060
0.065
0.065
0.065
0.065
0.055
0.050
0.045
0.040
0.035
0.045
0.055
0.070
0.085
0.105
0.120
0.125
0.130
0.130
0.130
0.130
0.130
0.140
0.150
0.165
0.185
0.200
0.210
0.215
0.215
0.210
0.200
0.195
0.190
0.190
0.190
0.195
0.205
0.215
0.220
0.220
0.220
0.210
0.200
0.185
0.175
0.160
0.145
0.135
0.130
0.120
0.115
0.110
0.105
0.100
0.095
0.090
0.085
0.075
0.070
0.065
0.060
0.050
0.045
0.035
0.030
0.020
0.015
0.005
-0.005
-0.010
-0.020
-0.030
-0.040
-0.050
-0.055
-0.055
-0.055
-0.050
-0.040
-0.030
-0.020
-0.020
-0.020
-0.025
-0.035
-0.045
-0.055
-0.065
-0.070
-0.070
-0.060
-0.055
-0.040
-0.030
-0.025
-0.020
-0.020
-0.025
-0.035
-0.045
-0.050
-0.060
-0.065
-0.070
-0.070
-0.070
-0.070
-0.065
-0.065
-0.065
-0.065
-0.065
-0.065
-0.065
-0.065
-0.065
-0.065
-0.060
-0.060
-0.055
-0.055
-0.050
-0.050
-0.055
-0.055
-0.055
-0.055
-0.050
-0.050
-0.050
-0.050
-0.050
-0.050
-0.055
-0.055
-0.060
-0.065
-0.065
-0.070
-0.070
-0.070
-0.075
-0.075
-0.080
-0.080
-0.080
-0.080
-0.075
-0.075
-0.070
-0.070
-0.065
-0.065
-0.065
-0.065
-0.065
-0.065
-0.060
-0.060
-0.060
-0.055
-0.055
-0.055
-0.060
-0.060
-0.065
-0.065
-0.060
-0.060
-0.055
-0.055
-0.050
-0.050
-0.050
-0.055
-0.060
-0.065
-0.070
-0.070
-0.075
-0.075
-0.075
-0.075
-0.080
-0.085
-0.090
-0.095
-0.095
-0.095
-0.095
-0.090
-0.085
-0.080
-0.070
-0.065
-0.065
-0.060
-0.065
-0.065
-0.075
-0.080
-0.085
-0.090
-0.090
-0.085
-0.085
-0.075
-0.070
-0.065
-0.060
-0.065
-0.065
-0.075
-0.085
-0.090
-0.095
-0.095
-0.090
-0.080
-0.070
-0.065
-0.060
-0.060
-0.065
-0.070
-0.080
-0.085
-0.090
-0.085
-0.080
-0.070
-0.060
-0.045
-0.035
-0.030
-0.025
-0.020
-0.015
-0.005
0.000
0.005
0.010
0.015
0.015
0.005
-0.005
-0.015
-0.030
-0.040
-0.045
-0.045
-0.040
-0.030
-0.020
-0.010
-0.005
-0.005
-0.015
-0.030
-0.045
-0.060
-0.070
-0.080
-0.080
-0.080
-0.070
-0.065
-0.060
-0.060
-0.060
-0.070
-0.080
-0.090
-0.100
-0.105
-0.115
-0.115
-0.115
-0.110
-0.105
-0.100
-0.090
-0.085
-0.080
-0.080
-0.080
-0.085
-0.090
-0.100
-0.105
-0.110
-0.115
-0.115
-0.110
-0.100
-0.095
-0.085
-0.080
-0.075
-0.075
-0.075
-0.075
-0.080
-0.085
-0.090
-0.105
-0.120
-0.140
-0.160
-0.175
-0.180
-0.170
-0.140
-0.090
-0.010
0.090
0.205
0.335
0.465
0.590
0.700
0.785
0.840
0.860
0.840
0.785
0.700
0.585
0.455
0.325
0.200
0.095
0.015
-0.035
-0.055
-0.050
-0.035
-0.010
0.005
0.010
0.000
-0.020
-0.040
-0.065
-0.075
-0.080
-0.075
-0.060
-0.045
-0.030
-0.025
-0.030
-0.040
-0.050
-0.065
-0.075
-0.080
-0.075
-0.065
-0.055
-0.050
-0.045
-0.045
-0.045
-0.050
-0.050
-0.050
-0.045
-0.040
-0.035
-0.030
-0.035
-0.040
-0.045
-0.055
-0.060
-0.060
-0.050
-0.040
-0.025
-0.010
0.000
0.000
-0.005
-0.015
-0.030
-0.045
-0.055
-0.060
-0.060
-0.050
-0.035
-0.025
-0.015
-0.010
-0.005
-0.010
-0.015
-0.015
-0.020
-0.020
-0.020
-0.015
-0.010
-0.005
0.000
0.005
0.005
0.010
0.010
0.010
0.010
0.010
0.015
0.015
0.020
0.030
0.040
0.050
0.060
0.065
0.065
0.065
0.060
0.050
0.040
0.035
0.030
0.035
0.045
0.060
0.080
0.100
0.120
0.135
0.145
0.145
0.140
0.130
0.120
0.105
0.095
0.090
0.090
0.100
0.115
0.135
0.155
0.180
0.195
0.210
0.215
0.220
0.215
0.205
0.200
0.190
0.185
0.185
0.185
0.185
0.190
0.185
0.185
0.175
0.170
0.160
0.145
0.135
0.125
0.115
0.110
0.105
0.095
0.090
0.085
0.075
0.070
0.060
0.050
0.040
0.030
0.020
0.015
0.010
0.010
0.005
0.005
0.000
-0.005
-0.010
-0.020
-0.025
-0.035
-0.040
-0.040
-0.045
-0.045
-0.050
-0.050
-0.055
-0.055
-0.060
-0.060
-0.055
-0.050
-0.040
-0.030
-0.020
-0.010
-0.010
-0.010
-0.020
-0.030
-0.040
-0.050
-0.055
-0.055
-0.050
-0.045
-0.040
-0.040
-0.040
-0.045
-0.050
-0.060
-0.060
-0.060
-0.055
-0.045
-0.035
-0.025
-0.020
-0.025
-0.030
-0.045
-0.055
-0.065
-0.070
-0.070
-0.060
-0.045
-0.030
-0.015
-0.005
-0.005
-0.010
-0.015
-0.025
-0.030
-0.035
-0.035
-0.030
-0.020
-0.015
-0.015
-0.015
-0.025
-0.035
-0.045
-0.055
-0.060
-0.060
-0.055
-0.045
-0.035
-0.030
-0.030
-0.035
-0.040
-0.050
-0.055
-0.055
-0.055
-0.050
-0.040
-0.030
-0.025
-0.025
-0.025
-0.030
-0.035
-0.035
-0.035
-0.035
-0.030
-0.025
-0.020
-0.025
-0.030
-0.040
-0.055
-0.070
-0.080
-0.090
-0.090
-0.090
-0.080
-0.070
-0.060
-0.055
-0.050
-0.055
-0.060
-0.070
-0.075
-0.080
-0.080
-0.075
-0.070
-0.060
-0.050
-0.045
-0.040
-0.045
-0.050
-0.055
-0.060
-0.065
-0.065
-0.065
-0.060
-0.055
-0.050
-0.045
-0.045
-0.050
-0.060
-0.065
-0.075
-0.080
-0.085
-0.085
-0.080
-0.080
-0.075
-0.070
-0.070
-0.075
-0.075
-0.075
-0.075
-0.070
-0.060
-0.050
-0.040
-0.030
-0.020
-0.015
-0.015
-0.015
-0.010
-0.005
0.005
0.020
0.030
0.040
0.040
0.035
0.025
0.005
-0.015
-0.030
-0.045
-0.050
-0.050
-0.040
-0.025
-0.015
-0.005
0.000
0.000
-0.005
-0.015
-0.030
-0.040
-0.050
-0.060
-0.065
-0.065
-0.070
-0.070
-0.070
-0.070
-0.070
-0.070
-0.065
-0.065
-0.060
-0.060
-0.055
-0.055
-0.055
-0.055
-0.060
-0.060
-0.060
-0.065
-0.070
-0.075
-0.085
-0.095
-0.100
-0.105
-0.105
-0.100
-0.095
-0.085
-0.075
-0.065
-0.060
-0.060
-0.065
-0.075
-0.085
-0.095
-0.105
-0.110
-0.120
-0.125
-0.130
-0.130
-0.125
-0.115
-0.085
-0.040
0.025
0.115
0.230
0.355
0.485
0.610
0.710
0.775
0.800
0.780
0.720
0.620
0.500
0.370
0.245
0.135
0.050
-0.010
-0.045
-0.055
-0.060
-0.055
-0.045
-0.040
-0.040
-0.035
-0.035
-0.035
-0.035
-0.030
-0.025
-0.025
-0.025
-0.025
-0.030
-0.040
-0.045
-0.050
-0.050
-0.050
-0.040
-0.035
-0.025
-0.015
-0.010
-0.010
-0.010
-0.015
-0.020
-0.025
-0.030
-0.035
-0.035
-0.035
-0.035
-0.035
-0.035
-0.035
-0.035
-0.035
-0.035
-0.035
-0.035
-0.040
-0.040
-0.040
-0.040
-0.040
-0.040
-0.040
-0.040
-0.040
-0.040
-0.035
-0.025
-0.020
-0.010
-0.005
0.000
0.000
-0.005
-0.015
-0.025
-0.035
-0.040
-0.040
-0.040
-0.035
-0.025
-0.020
-0.015
-0.010
-0.010
-0.015
-0.025
-0.030
-0.035
-0.035
-0.030
-0.020
-0.010
0.000
0.010
0.020
0.025
0.035
0.040
0.045
0.055
0.060
0.070
0.075
0.080
0.080
0.080
0.080
0.075
0.075
0.070
0.070
0.070
0.070
0.065
0.065
0.065
0.070
0.075
0.080
0.090
0.105
0.115
0.130
0.140
0.150
0.155
0.155
0.155
0.155
0.150
0.150
0.145
0.145
0.145
0.150
0.150
0.150
0.155
0.160
0.165
0.170
0.175
0.175
0.175
0.175
0.165
0.150
0.130
0.110
0.085
0.065
0.050
0.035
0.025
0.020
0.015
0.010
0.005
-0.005
-0.020
-0.035
-0.050
-0.065
-0.075
-0.075
-0.075
-0.070
-0.065
-0.055
-0.055
-0.055
-0.055
-0.065
-0.070
-0.075
-0.080
-0.085
-0.080
-0.080
-0.075
-0.075
-0.075
-0.080
-0.090
-0.100
-0.115
-0.120
-0.125
-0.125
-0.120
-0.110
-0.095
-0.075
-0.060
-0.050
-0.040
-0.040
-0.050
-0.060
-0.080
-0.100
-0.115
-0.130
-0.140
-0.140
-0.135
-0.125
-0.110
-0.095
-0.080
-0.070
-0.060
-0.060
-0.060
-0.060
-0.065
-0.070
-0.075
-0.080
-0.080
-0.085
-0.085
-0.090
-0.095
-0.095
-0.100
-0.100
-0.100
-0.095
-0.090
-0.085
-0.080
-0.075
-0.075
-0.075
-0.080
-0.085
-0.090
-0.100
-0.115
-0.125
-0.135
-0.145
-0.150
-0.155
-0.155
-0.150
-0.145
-0.135
-0.130
-0.120
-0.115
-0.115
-0.115
-0.115
-0.120
-0.125
-0.130
-0.130
-0.135
-0.130
-0.130
-0.125
-0.120
-0.115
-0.115
-0.115
-0.120
-0.125
-0.130
-0.135
-0.140
-0.145
-0.145
-0.140
-0.130
-0.120
-0.110
-0.100
-0.095
-0.090
-0.095
-0.105
-0.115
-0.135
