0.215
0.180
0.150
0.125
0.105
0.095
0.085
0.080
0.070
0.065
0.060
0.050
0.040
0.030
0.020
0.015
0.010
0.005
0.005
-0.005
-0.015
-0.030
-0.045
-0.065
-0.085
-0.100
-0.105
-0.110
-0.110
-0.105
-0.095
-0.085
-0.080
-0.070
-0.065
-0.065
-0.065
-0.065
-0.065
-0.070
-0.075
-0.080
-0.090
-0.100
-0.105
-0.110
-0.115
-0.115
-0.110
-0.105
-0.100
-0.095
-0.090
-0.090
-0.090
-0.095
-0.095
-0.095
-0.095
-0.090
-0.085
-0.080
-0.075
-0.070
-0.070
-0.070
-0.075
-0.080
-0.085
-0.085
-0.085
-0.075
-0.070
-0.060
-0.050
-0.050
-0.045
-0.050
-0.055
-0.065
-0.070
-0.075
-0.080
-0.080
-0.075
-0.075
-0.070
-0.070
-0.075
-0.075
-0.080
-0.080
-0.080
-0.080
-0.075
-0.070
-0.065
-0.065
-0.060
-0.060
-0.060
-0.060
-0.060
-0.060
-0.060
-0.055
-0.055
-0.050
-0.050
-0.050
-0.050
-0.050
-0.055
-0.055
-0.060
-0.065
-0.065
-0.070
-0.070
-0.070
-0.070
-0.070
-0.070
-0.070
-0.070
-0.070
-0.070
-0.070
-0.070
-0.075
-0.075
-0.075
-0.075
-0.075
-0.070
-0.065
-0.065
-0.060
-0.060
-0.065
-0.070
-0.075
-0.075
-0.075
-0.075
-0.065
-0.060
-0.050
-0.040
-0.040
-0.040
-0.050
-0.060
-0.070
-0.085
-0.090
-0.095
-0.090
-0.080
-0.070
-0.060
-0.050
-0.045
-0.050
-0.055
-0.065
-0.080
-0.090
-0.095
-0.100
-0.095
-0.085
-0.075
-0.060
-0.055
-0.050
-0.050
-0.055
-0.070
-0.080
-0.090
-0.100
-0.100
-0.095
-0.085
-0.070
-0.050
-0.030
-0.015
-0.005
0.000
0.000
-0.010
-0.015
-0.025
-0.035
-0.040
-0.045
-0.045
-0.040
-0.035
-0.025
-0.020
-0.010
-0.005
-0.005
-0.005
-0.010
-0.015
-0.020
-0.030
-0.040
-0.045
-0.050
-0.050
-0.050
-0.045
-0.040
-0.040
-0.035
-0.040
-0.045
-0.050
-0.060
-0.070
-0.080
-0.085
-0.085
-0.085
-0.080
-0.075
-0.070
-0.065
-0.065
-0.070
-0.075
-0.085
-0.100
-0.110
-0.115
-0.120
-0.115
-0.105
-0.095
-0.085
-0.075
-0.065
-0.065
-0.065
-0.075
-0.080
-0.095
-0.100
-0.110
-0.110
-0.115
-0.115
-0.110
-0.115
-0.115
-0.115
-0.115
-0.105
-0.095
-0.070
-0.040
0.005
0.065
0.130
0.200
0.280
0.355
0.425
0.490
0.535
0.560
0.560
0.530
0.475
0.390
0.290
0.185
0.075
-0.025
-0.105
-0.165
-0.195
-0.200
-0.190
-0.160
-0.130
-0.095
-0.060
-0.040
-0.025
-0.015
-0.015
-0.020
-0.030
-0.035
-0.045
-0.050
-0.055
-0.055
-0.055
-0.050
-0.040
-0.035
-0.030
-0.025
-0.025
-0.025
-0.030
-0.035
-0.040
-0.045
-0.045
-0.045
-0.040
-0.035
-0.025
-0.020
-0.015
-0.015
-0.010
-0.015
-0.015
-0.020
-0.020
-0.020
-0.015
-0.010
-0.005
0.000
0.005
0.005
0.005
0.000
-0.005
-0.010
-0.015
-0.015
-0.015
-0.005
0.005
0.020
0.030
0.045
0.050
0.055
0.055
0.050
0.050
0.045
0.045
0.050
0.060
0.070
0.085
0.095
0.110
0.115
0.115
0.115
0.110
0.110
0.110
0.115
0.120
0.135
0.150
0.165
0.180
0.195
0.200
0.205
0.205
0.205
0.200
0.200
0.205
0.210
0.215
0.225
0.235
0.240
0.240
0.240
0.235
0.230
0.220
0.220
0.215
0.220
0.220
0.225
0.225
0.225
0.220
0.210
0.200
0.180
0.160
0.140
0.125
0.105
0.095
0.080
0.075
0.065
0.060
0.055
0.045
0.035
0.025
0.010
-0.005
-0.015
-0.025
-0.035
-0.035
-0.035
-0.030
-0.025
-0.020
-0.015
-0.020
-0.025
-0.035
-0.045
-0.050
-0.055
-0.060
-0.055
-0.050
-0.040
-0.035
-0.035
-0.035
-0.040
-0.045
-0.055
-0.065
-0.075
-0.080
-0.080
-0.080
-0.080
-0.075
-0.070
-0.070
-0.065
-0.060
-0.060
-0.055
-0.055
-0.055
-0.050
-0.050
-0.050
-0.045
-0.040
-0.035
-0.035
-0.030
-0.030
-0.035
-0.035
-0.040
-0.045
-0.050
-0.050
-0.050
-0.045
-0.045
-0.035
-0.030
-0.030
-0.025
-0.025
-0.030
-0.035
-0.040
-0.045
-0.045
-0.045
-0.045
-0.045
-0.040
-0.035
-0.035
-0.035
-0.030
-0.035
-0.035
-0.035
-0.040
-0.040
-0.040
-0.045
-0.045
-0.040
-0.040
-0.040
-0.040
-0.040
-0.040
-0.040
-0.040
-0.040
-0.045
-0.045
-0.045
-0.045
-0.045
-0.045
-0.045
-0.045
-0.050
-0.055
-0.060
-0.060
-0.065
-0.065
-0.060
-0.055
-0.050
-0.045
-0.040
-0.040
-0.045
-0.055
-0.060
-0.070
-0.080
-0.085
-0.080
-0.075
-0.065
-0.055
-0.045
-0.040
-0.035
-0.035
-0.040
-0.045
-0.050
-0.050
-0.050
-0.050
-0.045
-0.040
-0.035
-0.035
-0.035
-0.040
-0.045
-0.050
-0.055
-0.060
-0.065
-0.070
-0.070
-0.070
-0.070
-0.065
-0.060
-0.055
-0.050
-0.040
-0.035
-0.035
-0.035
-0.035
-0.035
-0.040
-0.040
-0.040
-0.040
-0.040
-0.040
-0.040
-0.040
-0.050
-0.055
-0.065
-0.075
-0.080
-0.080
-0.075
-0.070
-0.060
-0.055
-0.045
-0.040
-0.035
-0.035
-0.035
-0.035
-0.035
-0.035
-0.030
-0.030
-0.030
-0.030
-0.035
-0.040
-0.045
-0.045
-0.045
-0.040
-0.030
-0.015
0.000
0.010
0.025
0.030
0.025
0.025
0.015
0.005
0.000
-0.005
-0.005
-0.005
0.000
0.000
0.005
0.005
0.000
0.000
-0.005
-0.010
-0.015
-0.020
-0.025
-0.030
-0.035
-0.040
-0.045
-0.050
-0.050
-0.055
-0.055
-0.055
-0.060
-0.060
-0.065
-0.065
-0.070
-0.075
-0.075
-0.075
-0.070
-0.070
-0.070
-0.070
-0.070
-0.070
-0.075
-0.080
-0.085
-0.085
-0.080
-0.075
-0.070
-0.060
-0.055
-0.050
-0.055
-0.065
-0.075
-0.090
-0.105
-0.115
-0.120
-0.120
-0.110
-0.095
-0.070
-0.035
0.005
0.055
0.120
0.195
0.275
0.360
0.440
0.515
0.570
0.600
0.600
0.570
0.510
0.425
0.320
0.210
0.105
0.010
-0.065
-0.115
-0.145
-0.150
-0.140
-0.120
-0.095
-0.075
-0.060
-0.045
-0.040
-0.040
-0.045
-0.045
-0.045
-0.045
-0.040
-0.035
-0.030
-0.030
-0.030
-0.035
-0.045
-0.050
-0.060
-0.060
-0.060
-0.055
-0.050
-0.040
-0.030
-0.025
-0.020
-0.020
-0.020
-0.020
-0.020
-0.020
-0.020
-0.020
-0.015
-0.010
-0.010
-0.005
0.000
0.000
0.000
0.000
0.000
0.000
-0.005
-0.005
-0.010
-0.010
-0.010
-0.010
-0.005
0.005
0.010
0.020
0.030
0.035
0.035
0.030
0.025
0.020
0.015
0.010
0.015
0.020
0.035
0.050
0.065
0.085
0.095
0.105
0.110
0.115
0.115
0.115
0.120
0.120
0.125
0.135
0.140
0.150
0.155
0.165
0.170
0.180
0.185
0.195
0.200
0.205
0.210
0.210
0.210
0.205
0.205
0.205
0.205
0.210
0.215
0.225
0.230
0.235
0.240
0.240
0.235
0.225
0.210
0.200
0.190
0.180
0.175
0.170
0.165
0.160
0.155
0.145
0.135
0.115
0.095
0.075
0.050
0.035
0.020
0.010
0.010
0.010
0.010
0.010
0.010
0.005
0.000
-0.010
-0.020
-0.030
-0.035
-0.035
-0.035
-0.030
-0.030
-0.025
-0.030
-0.035
-0.040
-0.055
-0.065
-0.070
-0.075
-0.075
-0.070
-0.065
-0.060
-0.055
-0.055
-0.055
-0.065
-0.075
-0.080
-0.090
-0.090
-0.090
-0.085
-0.080
-0.070
-0.065
-0.065
-0.065
-0.070
-0.075
-0.080
-0.075
-0.070
-0.060
-0.050
-0.035
-0.025
-0.020
-0.020
-0.030
-0.040
-0.050
-0.060
-0.065
-0.065
-0.060
-0.050
-0.040
-0.030
-0.025
-0.025
-0.035
-0.045
-0.055
-0.065
-0.075
-0.075
-0.075
-0.065
-0.060
-0.050
-0.045
-0.040
-0.040
-0.045
-0.045
-0.050
-0.055
-0.055
-0.060
-0.065
-0.065
-0.070
-0.070
-0.070
-0.070
-0.060
-0.055
-0.045
-0.040
-0.035
-0.030
-0.035
-0.040
-0.050
-0.060
-0.065
-0.075
-0.075
-0.075
-0.070
-0.065
-0.055
-0.050
-0.045
-0.040
-0.035
-0.030
-0.030
-0.030
-0.035
-0.040
-0.045
-0.055
-0.070
-0.080
-0.090
-0.095
-0.100
-0.100
-0.095
-0.090
-0.080
-0.070
-0.060
-0.055
-0.055
-0.055
-0.060
-0.060
-0.065
-0.065
-0.060
-0.060
-0.055
-0.050
-0.050
-0.050
-0.055
-0.065
-0.075
-0.085
-0.090
-0.090
-0.090
-0.080
-0.065
-0.050
-0.040
-0.030
-0.025
-0.030
-0.035
-0.050
-0.060
-0.075
-0.080
-0.085
-0.080
-0.075
-0.065
-0.060
-0.050
-0.050
-0.050
-0.055
-0.055
-0.060
-0.060
-0.060
-0.055
-0.045
-0.040
-0.030
-0.025
-0.020
-0.020
-0.025
-0.025
-0.030
-0.030
-0.030
-0.030
-0.030
-0.025
-0.020
-0.020
-0.015
-0.015
-0.020
-0.020
-0.025
-0.030
-0.035
-0.035
-0.035
-0.035
-0.030
-0.025
-0.020
-0.015
-0.005
0.000
0.000
0.005
0.000
0.000
0.000
0.000
0.000
0.010
0.015
0.025
0.030
0.035
0.035
0.035
0.030
0.025
0.020
0.015
0.020
0.025
0.030
0.040
0.045
0.050
0.045
0.035
0.025
0.010
-0.010
-0.020
-0.035
-0.040
-0.040
-0.035
-0.030
-0.025
-0.020
-0.015
-0.015
-0.020
-0.025
-0.035
-0.040
-0.045
-0.050
-0.045
-0.045
-0.035
-0.030
-0.020
-0.015
-0.010
-0.010
-0.010
-0.015
-0.020
-0.030
-0.035
-0.035
-0.035
-0.030
-0.025
-0.020
-0.020
-0.025
-0.030
-0.045
-0.065
-0.080
-0.090
-0.095
-0.090
-0.075
-0.050
-0.020
0.025
0.070
0.130
0.190
0.255
0.330
0.405
0.480
0.540
0.590
0.610
0.600
0.560
0.485
0.385
0.270
0.155
0.040
-0.050
-0.115
-0.155
-0.165
-0.150
-0.120
-0.085
-0.055
-0.030
-0.015
-0.010
-0.015
-0.025
-0.040
-0.055
-0.065
-0.070
-0.070
-0.065
-0.060
-0.055
-0.050
-0.045
-0.045
-0.045
-0.045
-0.050
-0.050
-0.055
-0.050
-0.045
-0.035
-0.025
-0.015
-0.005
0.005
0.005
0.005
0.005
0.000
0.000
0.000
0.005
0.010
0.015
0.025
0.030
0.035
0.030
0.025
0.015
0.005
-0.005
-0.005
-0.005
0.005
0.020
0.035
0.050
0.060
0.065
0.065
0.060
0.050
0.040
0.030
0.020
0.015
0.020
0.030
0.040
0.055
0.070
0.080
0.090
0.095
0.100
0.100
0.105
0.110
0.110
0.115
0.120
0.125
0.130
0.135
0.140
0.145
0.150
0.160
0.170
0.175
0.185
0.190
0.195
0.195
0.200
0.200
0.200
0.205
0.215
0.220
0.230
0.240
0.245
0.245
0.240
0.230
0.220
0.210
0.200
0.195
0.190
0.190
0.190
0.190
0.185
0.175
0.165
0.145
0.125
0.105
0.090
0.075
0.070
0.060
0.055
0.050
0.040
0.030
0.015
0.000
-0.010
-0.025
-0.030
-0.035
-0.035
-0.035
-0.035
-0.040
-0.045
-0.055
-0.065
-0.075
-0.080
-0.080
-0.075
-0.065
-0.055
-0.040
-0.035
-0.030
-0.035
-0.045
-0.055
-0.070
-0.080
-0.085
-0.090
-0.090
-0.085
-0.085
-0.085
-0.085
-0.085
-0.085
-0.085
-0.075
-0.065
-0.055
-0.045
-0.035
-0.030
-0.035
-0.040
-0.055
-0.065
-0.080
-0.090
-0.095
-0.090
-0.085
-0.080
-0.070
-0.065
-0.060
-0.065
-0.065
-0.070
-0.070
-0.070
-0.065
-0.060
-0.055
-0.050
-0.045
-0.050
-0.055
-0.060
-0.070
-0.075
-0.075
-0.075
-0.070
-0.060
-0.050
-0.045
-0.045
-0.045
-0.050
-0.055
-0.065
-0.070
-0.070
-0.065
-0.060
-0.055
-0.045
-0.045
-0.045
-0.050
-0.055
-0.060
-0.065
-0.065
-0.060
-0.055
-0.045
-0.040
-0.035
-0.040
-0.045
-0.055
-0.065
-0.075
-0.080
-0.080
-0.075
-0.070
-0.065
-0.060
-0.055
-0.060
-0.065
-0.070
-0.080
-0.080
-0.080
-0.075
-0.065
-0.050
-0.040
-0.035
-0.035
-0.040
-0.050
-0.060
-0.065
-0.070
-0.070
-0.065
-0.060
-0.050
-0.050
-0.050
-0.055
-0.065
-0.075
-0.085
-0.095
-0.095
-0.095
-0.095
-0.090
-0.085
-0.085
-0.080
-0.080
-0.080
-0.080
-0.075
-0.070
-0.065
-0.060
-0.055
-0.050
-0.050
-0.055
-0.065
-0.070
-0.080
-0.085
-0.085
-0.085
-0.080
-0.070
-0.065
-0.065
-0.060
-0.065
-0.070
-0.075
-0.080
-0.085
-0.085
-0.085
-0.080
-0.080
-0.075
-0.075
-0.070
-0.075
-0.075
-0.080
-0.085
-0.090
-0.090
-0.090
-0.090
-0.085
-0.075
-0.070
-0.060
-0.055
-0.045
-0.045
-0.040
-0.045
-0.050
-0.055
-0.065
-0.070
-0.075
-0.080
-0.080
-0.075
-0.070
-0.060
-0.055
-0.050
-0.050
-0.050
-0.055
-0.065
-0.070
-0.080
-0.080
-0.080
-0.075
-0.065
-0.055
-0.045
-0.030
-0.025
-0.020
-0.025
-0.030
-0.040
-0.050
-0.060
-0.065
-0.060
-0.055
-0.045
-0.035
-0.020
-0.010
0.000
0.010
0.010
0.010
0.010
0.010
0.010
0.005
0.005
0.005
0.000
-0.005
-0.010
-0.020
-0.030
-0.040
-0.055
-0.060
-0.070
-0.075
-0.080
-0.080
-0.080
-0.080
-0.080
-0.075
-0.070
-0.060
-0.055
-0.045
-0.045
-0.045
-0.045
-0.055
-0.065
-0.075
-0.080
-0.090
-0.090
-0.090
-0.085
-0.080
-0.080
-0.075
-0.075
-0.075
-0.075
-0.075
-0.070
-0.065
-0.055
-0.050
-0.050
-0.055
-0.060
-0.075
-0.090
-0.100
-0.110
-0.115
-0.110
-0.100
-0.075
-0.050
-0.010
0.030
0.085
0.145
0.215
0.290
0.370
0.450
0.520
0.565
0.585
0.575
0.530
0.455
0.355
0.245
0.135
0.035
-0.045
-0.100
-0.130
-0.135
-0.130
-0.110
-0.085
-0.065
-0.050
-0.040
-0.040
-0.040
-0.040
-0.040
-0.040
-0.040
-0.040
-0.040
-0.045
-0.050
-0.055
-0.055
-0.055
-0.050
-0.045
-0.030
-0.015
0.000
0.010
0.010
0.005
-0.005
-0.015
-0.030
-0.040
-0.050
-0.050
-0.040
-0.030
-0.015
0.000
0.015
0.025
0.025
0.025
0.020
0.015
0.005
0.000
0.000
0.005
0.010
0.020
0.030
0.040
0.045
0.050
0.045
0.045
0.035
0.030
0.025
0.025
0.025
0.030
0.040
0.050
0.060
0.070
0.075
0.080
0.085
0.085
0.085
0.090
0.095
0.100
0.105
0.110
0.115
0.120
0.125
0.125
0.130
0.140
0.150
0.160
0.175
0.190
0.205
0.215
0.220
0.225
0.225
0.225
0.220
0.225
0.225
0.235
0.245
0.255
0.265
0.275
0.280
0.280
0.280
0.275
0.270
0.265
0.260
0.255
0.250
0.250
0.245
0.240
0.235
0.230
0.220
0.210
0.195
0.175
0.160
0.145
0.130
0.115
0.110
0.105
0.100
0.095
0.095
0.085
0.075
0.065
0.050
0.030
0.015
0.005
-0.005
-0.005
-0.005
0.005
0.010
0.015
0.015
0.010
0.005
-0.010
-0.020
-0.035
-0.040
-0.040
-0.040
-0.030
-0.020
-0.010
-0.005
-0.005
-0.005
-0.015
-0.030
-0.040
-0.050
-0.055
-0.055
-0.055
-0.045
-0.035
-0.025
-0.015
-0.015
-0.015
-0.015
-0.025
-0.030
-0.035
-0.040
-0.040
-0.035
-0.030
-0.025
-0.020
-0.015
-0.015
-0.015
-0.020
-0.020
-0.025
-0.025
-0.025
-0.025
-0.025
-0.025
-0.025
-0.025
-0.025
-0.025
-0.030
-0.030
-0.035
-0.035
-0.035
-0.035
-0.035
-0.035
-0.035
-0.030
-0.030
-0.025
-0.025
-0.020
-0.015
-0.010
-0.010
-0.005
-0.005
-0.010
-0.015
-0.020
-0.030
-0.035
-0.040
-0.045
-0.045
-0.040
-0.035
-0.025
-0.020
-0.015
-0.015
-0.015
-0.015
-0.020
-0.025
-0.030
-0.030
-0.035
-0.040
-0.045
-0.050
-0.055
-0.060
-0.065
-0.065
-0.065
-0.060
-0.055
-0.050
-0.045
-0.045
-0.045
-0.045
-0.045
-0.045
-0.050
-0.050
-0.045
-0.045
-0.045
-0.045
-0.045
-0.045
-0.045
-0.050
-0.050
-0.050
-0.050
-0.050
-0.050
-0.050
-0.055
-0.060
-0.060
-0.065
-0.070
-0.070
-0.070
-0.065
-0.060
-0.060
-0.055
-0.055
-0.055
-0.060
-0.065
-0.070
-0.075
-0.075
-0.075
-0.075
-0.070
-0.065
-0.060
-0.055
-0.050
-0.055
-0.055
-0.060
-0.060
-0.060
-0.065
-0.065
-0.065
-0.060
-0.060
-0.065
-0.065
-0.065
-0.065
-0.065
-0.060
-0.055
-0.050
-0.040
-0.040
-0.040
-0.045
-0.055
-0.070
-0.085
-0.095
-0.105
-0.105
-0.100
-0.090
-0.075
-0.060
-0.045
-0.035
-0.035
-0.040
-0.045
-0.060
-0.070
-0.075
-0.080
-0.080
-0.075
-0.065
-0.060
-0.050
-0.050
-0.055
-0.060
-0.065
-0.070
-0.075
-0.080
-0.075
-0.075
-0.070
-0.065
-0.060
-0.060
-0.060
-0.060
-0.060
-0.065
-0.065
-0.060
-0.060
-0.055
-0.055
-0.055
-0.055
-0.050
-0.050
-0.045
-0.040
-0.030
-0.020
-0.015
-0.005
0.000
0.000
-0.005
-0.010
-0.010
-0.015
-0.015
-0.015
-0.010
-0.005
0.000
0.005
0.005
0.000
0.000
-0.005
-0.010
-0.015
-0.015
-0.015
-0.015
-0.020
-0.020
-0.025
-0.035
-0.040
-0.050
-0.060
-0.065
-0.070
-0.070
-0.065
-0.065
-0.060
-0.055
-0.050
-0.050
-0.045
-0.050
-0.050
-0.055
-0.060
-0.070
-0.080
-0.085
-0.090
-0.095
-0.100
-0.100
-0.095
-0.090
-0.080
-0.075
-0.070
-0.060
-0.055
-0.055
-0.055
-0.060
-0.065
-0.075
-0.085
-0.100
-0.110
-0.120
-0.125
-0.125
-0.115
-0.100
-0.080
-0.050
-0.020
0.020
0.065
0.115
0.175
0.240
0.315
0.395
0.475
0.545
0.595
0.620
0.610
0.560
0.480
0.375
0.250
0.125
0.010
-0.080
-0.145
-0.180
-0.190
-0.175
-0.150
-0.120
-0.095
-0.070
-0.055
-0.050
-0.050
-0.050
-0.050
-0.045
-0.045
-0.040
-0.040
-0.035
-0.035
-0.035
-0.035
-0.035
-0.040
-0.040
-0.040
-0.045
-0.045
-0.045
-0.050
-0.045
-0.045
-0.040
-0.030
-0.025
-0.020
-0.015
-0.015
-0.015
-0.020
-0.025
-0.030
-0.035
-0.030
-0.025
-0.015
0.000
0.010
0.015
0.020
0.020
0.015
0.005
-0.005
-0.010
-0.015
-0.015
-0.010
-0.005
0.000
0.005
0.010
0.010
0.010
0.005
0.005
0.010
0.015
0.020
0.030
0.040
0.050
0.060
0.065
0.070
0.075
0.075
0.080
0.085
0.090
0.095
0.105
0.110
0.120
0.125
0.130
0.140
0.145
0.155
0.165
0.175
0.185
0.195
0.200
0.205
0.205
0.205
0.205
0.205
0.205
0.210
0.220
0.230
0.240
0.245
0.250
0.255
0.250
0.240
0.230
0.220
0.210
0.200
0.195
0.195
0.195
0.195
0.190
0.190
0.185
0.175
0.165
0.150
0.135
0.115
0.100
0.085
0.070
0.055
0.045
0.035
0.025
0.015
0.005
-0.005
-0.015
-0.020
-0.030
-0.030
-0.030
-0.030
-0.025
-0.020
-0.015
-0.010
-0.010
-0.015
-0.020
-0.030
-0.040
-0.045
-0.050
-0.050
-0.050
-0.045
-0.040
-0.035
-0.035
-0.040
-0.040
-0.045
-0.050
-0.050
-0.050
-0.050
-0.045
-0.035
-0.035
-0.030
-0.035
-0.040
-0.045
-0.055
-0.060
-0.060
-0.055
-0.050
-0.040
-0.030
-0.025
-0.020
-0.015
-0.020
-0.030
-0.040
-0.050
-0.055
-0.060
-0.060
-0.055
-0.045
-0.040
-0.030
-0.025
-0.025
-0.025
-0.025
-0.025
-0.025
-0.025
-0.020
-0.020
-0.015
-0.015
-0.015
-0.020
-0.025
-0.030
-0.035
-0.040
-0.045
-0.040
-0.040
-0.035
-0.030
-0.025
-0.025
-0.020
-0.020
-0.025
-0.025
-0.025
-0.025
-0.025
-0.025
-0.025
-0.025
-0.030
-0.030
-0.035
-0.035
-0.035
-0.035
-0.030
-0.025
-0.020
-0.015
-0.015
-0.015
-0.025
-0.030
-0.040
-0.050
-0.060
-0.065
-0.065
-0.060
-0.055
-0.045
-0.040
-0.035
-0.035
-0.040
-0.045
-0.055
-0.060
-0.065
-0.070
-0.065
-0.060
-0.050
-0.045
-0.040
-0.035
-0.040
-0.045
-0.050
-0.060
-0.060
-0.065
-0.060
-0.050
-0.045
-0.035
-0.030
-0.030
-0.030
-0.035
-0.045
-0.055
-0.060
-0.070
-0.070
-0.070
-0.070
-0.065
-0.055
-0.050
-0.045
-0.040
-0.035
-0.030
-0.025
-0.025
-0.030
-0.035
-0.040
-0.045
-0.055
-0.060
-0.060
-0.060
-0.060
-0.055
-0.050
-0.050
-0.045
-0.045
-0.050
-0.050
-0.050
-0.050
-0.050
-0.045
-0.040
-0.035
-0.035
-0.030
-0.030
-0.035
-0.040
-0.045
-0.050
-0.055
-0.060
-0.060
-0.055
-0.055
-0.050
-0.050
-0.045
-0.045
-0.045
-0.050
-0.055
-0.055
-0.060
-0.060
-0.060
-0.060
-0.055
-0.055
-0.050
-0.050
-0.045
-0.045
-0.045
-0.040
-0.040
-0.040
-0.035
-0.035
-0.030
-0.025
-0.025
-0.020
-0.020
-0.020
-0.020
-0.020
-0.020
-0.020
-0.020
-0.020
-0.015
-0.010
-0.005
0.005
0.010
0.020
0.025
0.025
0.030
0.025
0.020
0.015
0.010
0.005
0.000
-0.005
-0.010
-0.010
-0.015
-0.020
-0.025
-0.030
-0.035
-0.040
-0.045
-0.045
-0.045
-0.040
-0.035
-0.035
-0.035
-0.035
-0.040
-0.045
-0.050
-0.055
-0.060
-0.060
-0.060
-0.060
-0.055
-0.060
-0.060
-0.065
-0.075
-0.080
-0.080
-0.080
-0.080
-0.075
-0.070
-0.065
-0.065
-0.065
-0.070
-0.075
-0.080
-0.085
-0.085
-0.085
-0.080
-0.080
-0.075
-0.070
-0.065
-0.060
-0.045
-0.020
0.015
0.065
0.135
0.215
0.300
0.390
0.470
0.530
0.570
0.580
0.555
0.505
0.425
0.330
0.220
0.115
0.015
-0.065
-0.125
-0.160
-0.175
-0.170
-0.150
-0.120
-0.095
-0.070
-0.050
-0.035
-0.030
-0.035
-0.035
-0.045
-0.050
-0.050
-0.050
-0.050
-0.045
-0.045
-0.040
-0.035
-0.030
-0.030
-0.030
-0.035
-0.035
-0.040
-0.045
-0.045
-0.045
-0.045
-0.045
-0.035
-0.030
-0.020
-0.015
-0.010
-0.010
-0.010
-0.010
-0.020
-0.025
-0.030
-0.035
-0.035
-0.030
-0.020
-0.010
0.000
0.005
0.015
0.015
0.015
0.010
0.005
0.000
0.000
0.000
0.000
0.010
0.020
0.030
0.045
0.050
0.055
0.060
0.060
0.060
0.060
0.060
0.060
0.070
0.075
0.085
0.095
0.100
0.105
0.105
0.100
0.100
0.095
0.100
0.105
0.115
0.125
0.140
0.150
0.160
0.170
0.175
0.175
0.180
0.185
0.190
0.200
0.210
0.220
0.230
0.240
0.240
0.240
0.240
0.240
0.235
0.235
0.235
0.240
0.240
0.235
0.230
0.225
0.210
0.200
0.190
0.180
0.170
0.165
0.165
0.160
0.155
0.150
0.140
0.125
0.105
0.085
0.070
0.050
0.035
0.025
0.015
0.010
0.005
0.000
-0.005
-0.010
-0.010
-0.010
-0.010
-0.015
-0.015
-0.020
-0.025
-0.035
-0.045
-0.050
-0.055
-0.055
-0.055
-0.050
-0.045
-0.040
-0.035
-0.035
-0.035
-0.040
-0.045
-0.050
-0.055
-0.055
-0.050
-0.050
-0.040
-0.035
-0.030
-0.030
-0.030
-0.035
-0.045
-0.055
-0.070
-0.080
-0.085
-0.090
-0.090
-0.085
-0.080
-0.065
-0.055
-0.045
-0.040
-0.040
-0.045
-0.055
-0.065
-0.070
-0.075
-0.075
-0.070
-0.060
-0.045
-0.035
-0.025
-0.025
-0.025
-0.030
-0.035
-0.040
-0.045
-0.040
-0.035
-0.025
-0.015
-0.010
-0.010
-0.015
-0.025
-0.035
-0.050
-0.060
-0.065
-0.060
-0.050
-0.040
-0.025
-0.015
-0.005
-0.005
-0.015
-0.030
-0.045
-0.060
-0.070
-0.075
-0.070
-0.065
-0.055
-0.045
-0.040
-0.035
-0.030
-0.035
-0.035
-0.035
-0.035
-0.035
-0.035
-0.035
-0.035
-0.035
-0.040
-0.050
-0.055
-0.060
-0.060
-0.060
-0.050
-0.040
-0.030
-0.025
-0.020
-0.025
-0.030
-0.040
-0.055
-0.065
-0.075
-0.080
-0.080
-0.080
-0.070
-0.065
-0.060
-0.055
-0.050
-0.050
-0.055
-0.060
-0.065
-0.070
-0.070
-0.070
-0.065
-0.060
-0.055
-0.050
-0.045
-0.040
-0.040
-0.040
-0.040
-0.045
-0.045
-0.050
-0.050
-0.050
-0.045
-0.045
-0.045
-0.045
-0.045
-0.050
-0.050
-0.055
-0.060
-0.065
-0.065
-0.065
-0.060
-0.060
-0.060
-0.060
-0.060
-0.060
-0.065
-0.065
-0.065
-0.065
-0.060
-0.055
-0.050
-0.040
-0.035
-0.035
-0.035
-0.040
-0.045
-0.055
-0.060
-0.060
-0.060
-0.060
-0.055
-0.050
-0.045
-0.040
-0.040
-0.040
-0.045
-0.050
-0.055
-0.060
-0.060
-0.060
-0.060
-0.060
-0.060
-0.060
-0.060
-0.065
-0.065
-0.070
-0.065
-0.065
-0.055
-0.050
-0.045
-0.040
-0.040
-0.035
-0.035
-0.035
-0.035
-0.035
-0.035
-0.030
-0.025
-0.025
-0.020
-0.020
-0.015
-0.015
-0.010
-0.005
0.005
0.015
0.020
0.030
0.035
0.035
0.030
0.025
0.015
0.005
-0.005
-0.010
-0.015
-0.020
-0.020
-0.025
-0.025
-0.030
-0.035
-0.040
-0.050
-0.055
-0.060
-0.060
-0.060
-0.060
-0.060
-0.060
-0.060
-0.060
-0.065
-0.065
-0.070
-0.070
-0.070
-0.070
-0.065
-0.060
-0.060
-0.060
-0.060
-0.065
-0.070
-0.075
-0.080
-0.080
-0.080
-0.075
-0.070
-0.070
-0.065
-0.070
-0.075
-0.085
-0.095
-0.105
-0.115
-0.115
-0.115
-0.110
-0.100
-0.080
-0.060
-0.030
0.005
0.050
0.105
0.175
0.245
0.325
0.405
0.480
0.535
0.575
0.590
0.575
0.530
0.460
0.370
0.265
0.160
0.065
-0.020
-0.085
-0.130
-0.150
-0.155
-0.140
-0.120
-0.095
-0.070
-0.050
-0.035
-0.030
-0.025
-0.030
-0.035
-0.035
-0.035
-0.030
-0.025
-0.020
-0.010
-0.010
-0.010
-0.015
-0.025
-0.035
-0.045
-0.050
-0.055
-0.055
-0.045
-0.035
-0.020
-0.005
0.005
0.015
0.015
0.015
0.005
-0.005
-0.015
-0.020
-0.025
-0.025
-0.020
-0.015
-0.005
0.005
0.015
0.020
0.020
0.020
0.020
0.015
0.015
0.010
0.010
0.010
0.010
0.010
0.015
0.015
0.015
0.015
0.020
0.020
0.020
0.025
0.030
0.035
0.045
0.055
0.065
0.075
0.085
0.095
0.100
0.105
0.110
0.110
0.110
0.110
0.115
0.115
0.125
0.135
0.145
0.160
0.170
0.180
0.190
0.195
0.200
0.200
0.205
0.205
0.210
0.220
0.230
0.235
0.245
0.250
0.255
0.255
0.250
0.245
0.240
0.230
0.225
0.225
0.225
0.225
0.225
0.220
0.220
0.210
0.200
0.190
0.180
0.165
0.155
0.150
0.140
0.130
0.120
0.110
0.090
0.075
0.055
0.040
0.025
0.015
0.010
0.010
0.015
0.020
0.020
0.020
0.010
-0.005
-0.020
-0.040
-0.060
-0.070
-0.075
-0.075
-0.070
-0.065
-0.055
-0.050
-0.045
-0.050
-0.055
-0.065
-0.075
-0.080
-0.085
-0.085
-0.075
-0.070
-0.060
-0.055
-0.050
-0.050
-0.050
-0.055
-0.055
-0.055
-0.055
-0.050
-0.050
-0.045
-0.050
-0.050
-0.055
-0.060
-0.065
-0.065
-0.065
-0.065
-0.065
-0.060
-0.060
-0.065
-0.070
-0.075
-0.075
-0.080
-0.080
-0.075
-0.065
-0.060
-0.050
-0.045
-0.040
-0.045
-0.050
-0.055
-0.060
-0.065
-0.065
-0.065
-0.060
-0.055
-0.050
-0.050
-0.050
-0.050
-0.055
-0.060
-0.065
-0.065
-0.070
-0.070
-0.065
-0.060
-0.060
-0.055
-0.050
-0.050
-0.050
-0.050
-0.050
-0.050
-0.050
-0.050
-0.050
-0.045
-0.045
-0.045
-0.045
-0.045
-0.045
-0.045
-0.040
-0.040
-0.040
-0.045
-0.050
-0.060
-0.070
-0.075
-0.080
-0.085
-0.090
-0.085
-0.085
-0.080
-0.075
-0.075
-0.075
-0.075
-0.075
-0.080
-0.080
-0.075
-0.070
-0.065
-0.055
-0.050
-0.045
-0.045
-0.045
-0.045
-0.050
-0.055
-0.060
-0.060
-0.065
-0.065
-0.070
-0.080
-0.085
-0.090
-0.095
-0.100
-0.095
-0.090
-0.085
-0.075
-0.065
-0.055
-0.045
-0.045
-0.045
-0.045
-0.050
-0.060
-0.060
-0.065
-0.060
-0.060
-0.055
-0.045
-0.040
-0.040
-0.040
-0.040
-0.050
-0.055
-0.065
-0.075
-0.080
-0.085
-0.085
-0.085
-0.075
-0.070
-0.060
-0.055
-0.045
-0.045
-0.045
-0.045
-0.050
-0.055
-0.060
-0.065
-0.065
-0.070
-0.070
-0.065
-0.065
-0.065
-0.065
-0.065
-0.065
-0.070
-0.070
-0.070
-0.070
-0.065
-0.055
-0.050
-0.040
-0.035
-0.035
-0.030
-0.035
-0.040
-0.040
-0.045
-0.045
-0.045
-0.035
-0.025
-0.015
-0.005
0.005
0.010
0.010
0.005
-0.005
-0.015
-0.025
-0.030
-0.035
-0.030
-0.020
-0.010
0.000
0.010
0.010
0.005
-0.005
-0.025
-0.045
-0.065
-0.080
-0.085
-0.090
-0.085
-0.075
-0.060
-0.050
-0.040
-0.040
-0.040
-0.045
-0.050
-0.060
-0.070
-0.075
-0.075
-0.075
-0.070
-0.065
-0.060
-0.050
-0.050
-0.045
-0.050
-0.050
-0.055
-0.065
-0.070
-0.075
-0.075
-0.075
-0.075
-0.075
-0.075
-0.075
-0.080
-0.085
-0.090
-0.095
-0.100
-0.100
-0.090
-0.080
-0.055
-0.020
0.020
0.075
0.140
0.210
0.290
0.370
0.445
0.510
0.560
0.580
0.575
0.540
0.475
0.385
0.275
0.160
0.050
-0.045
-0.120
-0.170
-0.190
-0.190
-0.175
-0.145
-0.110
-0.080
-0.055
-0.035
-0.025
-0.020
-0.015
-0.020
-0.020
-0.025
-0.030
-0.035
-0.040
-0.045
-0.050
-0.050
-0.050
-0.045
-0.040
-0.030
-0.015
-0.005
0.000
0.005
0.000
-0.005
-0.015
-0.025
-0.030
-0.030
-0.030
-0.025
-0.015
-0.010
-0.005
0.000
-0.005
-0.010
-0.020
-0.025
-0.025
-0.020
-0.015
0.000
0.015
0.030
0.040
0.050
0.050
0.045
0.035
0.025
0.020
0.015
0.010
0.015
0.025
0.035
0.045
0.055
0.060
0.070
0.070
0.075
0.075
0.075
0.075
0.080
0.085
0.090
0.095
0.100
0.110
0.115
0.115
0.120
0.125
0.125
0.130
0.135
0.140
0.150
0.155
0.165
0.175
0.180
0.185
0.190
0.190
0.195
0.200
0.200
0.210
0.220
0.230
0.240
0.250
0.260
0.265
0.265
0.265
0.255
0.250
0.240
0.230
0.220
0.220
0.215
0.215
0.210
0.205
0.195
0.180
0.165
0.145
0.125
0.110
0.095
0.085
0.075
0.065
0.060
0.050
0.040
0.025
0.010
-0.005
-0.015
-0.025
-0.030
-0.035
-0.035
-0.035
-0.035
-0.035
-0.035
-0.035
-0.035
-0.030
-0.030
-0.020
-0.015
-0.010
-0.010
-0.010
-0.015
-0.020
-0.030
-0.040
-0.050
-0.055
-0.060
-0.060
-0.060
-0.055
-0.045
-0.040
-0.030
-0.020
-0.015
-0.010
-0.010
-0.010
-0.020
-0.030
-0.045
-0.055
-0.065
-0.070
-0.070
-0.060
-0.055
-0.045
-0.030
-0.025
-0.020
-0.020
-0.020
-0.025
-0.025
-0.030
-0.030
-0.030
-0.025
-0.025
-0.025
-0.030
-0.035
-0.045
-0.050
-0.055
-0.060
-0.055
-0.045
-0.030
-0.015
0.000
0.010
0.020
0.015
0.010
-0.005
-0.020
-0.030
-0.045
-0.050
-0.050
-0.045
-0.035
-0.030
-0.020
-0.020
-0.015
-0.020
-0.020
-0.025
-0.025
-0.025
-0.020
-0.020
-0.020
-0.020
-0.025
-0.035
-0.040
-0.050
-0.055
-0.060
-0.060
-0.055
-0.050
-0.040
-0.035
-0.030
-0.030
-0.030
-0.035
-0.035
-0.040
-0.040
-0.045
-0.045
-0.045
-0.045
-0.045
-0.045
-0.050
-0.050
-0.050
-0.050
-0.050
-0.055
-0.055
-0.055
-0.055
-0.055
-0.055
-0.055
-0.050
-0.045
-0.040
-0.035
-0.035
-0.035
-0.040
-0.050
-0.055
-0.065
-0.075
-0.080
-0.075
-0.070
-0.060
-0.050
-0.040
-0.030
-0.030
-0.030
-0.035
-0.045
-0.055
-0.065
-0.070
-0.070
-0.070
-0.065
-0.055
-0.050
-0.045
-0.040
-0.040
-0.045
-0.050
-0.055
-0.055
-0.055
-0.055
-0.050
-0.045
-0.040
-0.035
-0.040
-0.045
-0.050
-0.055
-0.060
-0.065
-0.065
-0.060
-0.050
-0.040
-0.035
-0.025
-0.025
-0.025
-0.025
-0.030
-0.030
-0.030
-0.030
-0.030
-0.025
-0.020
-0.015
-0.015
-0.020
-0.025
-0.030
-0.035
-0.040
-0.040
-0.040
-0.040
-0.035
-0.030
-0.025
-0.020
-0.020
-0.020
-0.020
-0.025
-0.025
-0.025
-0.025
-0.025
-0.025
-0.025
-0.030
-0.035
-0.040
-0.050
-0.060
-0.070
-0.075
-0.085
-0.085
-0.090
-0.085
-0.085
-0.080
-0.075
-0.070
-0.070
-0.065
-0.065
-0.065
-0.065
-0.065
-0.065
-0.065
-0.065
-0.065
-0.070
-0.070
-0.075
-0.075
-0.080
-0.080
-0.080
-0.080
-0.080
-0.075
-0.075
-0.075
-0.075
-0.080
-0.085
-0.095
-0.105
-0.110
-0.115
-0.110
-0.095
-0.070
-0.030
0.025
0.090
0.165
0.250
0.335
0.420
0.495
0.550
0.585
0.595
0.575
0.525
0.455
0.360
0.255
0.145
0.040
-0.045
-0.110
-0.150
-0.165
-0.160
-0.140
-0.110
-0.075
-0.050
-0.030
-0.020
-0.025
-0.030
-0.040
-0.050
-0.055
-0.060
-0.060
-0.055
-0.050
-0.040
-0.035
-0.035
-0.035
-0.035
-0.035
-0.040
-0.040
-0.040
-0.040
-0.035
-0.030
-0.030
-0.025
-0.020
-0.020
-0.020
-0.015
-0.020
-0.020
-0.020
-0.025
-0.025
-0.025
-0.025
-0.025
-0.020
-0.015
-0.010
-0.005
0.000
0.000
0.000
0.000
0.000
0.000
0.000
0.000
0.005
0.010
0.015
0.020
0.025
0.030
0.025
0.025
0.020
0.015
0.015
0.020
0.025
0.040
0.055
0.070
0.080
0.090
0.095
0.095
0.090
0.085
0.085
0.085
0.085
0.095
0.105
0.115
0.125
0.140
0.150
0.160
0.170
0.180
0.195
0.205
0.215
0.220
0.225
0.230
0.225
0.220
0.215
0.210
0.210
0.210
0.220
0.230
0.240
0.255
0.260
0.260
0.255
0.245
0.230
0.210
0.190
0.175
0.160
0.145
0.135
0.125
0.115
0.105
0.095
0.085
0.075
0.065
0.055
0.045
0.035
0.025
0.020
0.010
0.000
-0.010
-0.020
-0.030
-0.035
-0.045
-0.045
-0.045
-0.045
-0.045
-0.045
-0.050
-0.055
-0.060
-0.065
-0.070
-0.080
-0.080
-0.085
-0.085
-0.085
-0.080
-0.080
-0.080
-0.080
-0.080
-0.080
-0.080
-0.075
-0.075
-0.075
-0.075
-0.070
-0.070
-0.075
-0.075
-0.075
-0.075
-0.075
-0.070
-0.070
-0.060
-0.055
-0.050
-0.045
-0.040
-0.040
-0.040
-0.040
-0.045
-0.050
-0.055
-0.060
-0.070
-0.075
-0.075
-0.075
-0.070
-0.065
-0.055
-0.040
-0.030
-0.025
-0.025
-0.025
-0.035
-0.045
-0.055
-0.060
-0.065
-0.060
-0.050
-0.040
-0.030
-0.025
-0.020
-0.020
-0.020
-0.030
-0.035
-0.040
-0.045
-0.045
-0.040
-0.040
-0.035
-0.035
-0.035
-0.040
-0.045
-0.055
-0.060
-0.060
-0.060
-0.055
-0.050
-0.040
-0.035
-0.030
-0.035
-0.040
-0.050
-0.060
-0.075
-0.085
-0.090
-0.095
-0.090
-0.085
-0.075
-0.070
-0.060
-0.055
-0.055
-0.055
-0.060
-0.060
-0.065
-0.065
-0.060
-0.055
-0.045
-0.040
-0.035
-0.030
-0.035
-0.040
-0.050
-0.060
-0.075
-0.085
-0.090
-0.095
-0.095
-0.095
-0.090
-0.090
-0.085
-0.085
-0.085
-0.085
-0.080
-0.080
-0.080
-0.075
-0.070
-0.065
-0.060
-0.060
-0.060
-0.060
-0.065
-0.070
-0.075
-0.075
-0.080
-0.080
-0.075
-0.075
-0.070
-0.065
-0.065
-0.065
-0.065
-0.070
-0.070
-0.070
-0.070
-0.070
-0.065
-0.060
-0.055
-0.055
-0.055
-0.065
-0.075
-0.085
-0.090
-0.095
-0.095
-0.090
-0.080
-0.070
-0.055
-0.045
-0.040
-0.040
-0.045
-0.050
-0.055
-0.060
-0.060
-0.060
-0.055
-0.050
-0.040
-0.035
-0.030
-0.020
-0.015
-0.010
-0.005
0.000
0.000
0.005
0.000
-0.005
-0.010
-0.020
-0.030
-0.035
-0.040
-0.045
-0.045
-0.050
-0.055
-0.060
-0.070
-0.080
-0.095
-0.105
-0.110
-0.110
-0.100
-0.090
-0.080
-0.065
-0.055
-0.050
-0.050
-0.055
-0.065
-0.075
-0.085
-0.090
-0.095
-0.095
-0.095
-0.095
-0.095
-0.095
-0.095
-0.100
-0.100
-0.100
-0.100
-0.095
-0.095
-0.090
-0.095
-0.100
-0.105
-0.120
-0.130
-0.140
-0.145
-0.140
-0.130
-0.110
-0.075
-0.035
0.020
0.085
0.160
0.240
0.325
0.410
0.490
0.560
0.605
0.620
0.610
0.565
0.490
0.395
0.280
0.165
0.060
-0.035
-0.105
-0.150
-0.175
-0.175
-0.165
-0.145
-0.120
-0.095
-0.080
-0.065
-0.055
-0.050
-0.050
-0.050
-0.050
-0.050
-0.050
-0.045
-0.045
-0.040
-0.040
-0.035
-0.035
-0.035
-0.040
-0.045
-0.050
-0.055
-0.060
-0.065
-0.060
-0.060
-0.055
-0.045
-0.040
-0.035
-0.030
-0.030
-0.030
-0.030
-0.025
-0.025
-0.020
-0.015
-0.005
0.000
0.000
0.005
0.000
0.000
-0.005
-0.005
-0.005
-0.005
0.000
0.005
0.010
0.020
0.020
0.025
0.025
0.025
0.020
0.020
0.015
0.020
0.020
0.025
0.030
0.040
0.045
0.055
0.065
0.070
0.080
0.085
0.090
0.095
0.100
0.100
0.105
0.110
0.115
0.125
0.135
0.145
0.160
0.170
0.180
0.190
0.195
0.200
0.200
0.200
0.205
0.205
0.210
0.210
0.215
0.220
0.225
0.230
0.235
0.240
0.240
0.240
0.235
0.230
0.220
0.215
0.210
0.200
0.195
0.190
0.185
0.180
0.175
0.170
0.160
0.150
0.140
0.125
0.110
0.095
0.080
0.065
0.050
0.035
0.020
0.010
0.005
0.000
0.000
0.000
0.005
0.005
0.005
0.005
0.000
-0.005
-0.015
-0.025
-0.035
-0.040
-0.050
-0.055
-0.060
-0.065
-0.065
-0.065
-0.065
-0.060
-0.055
-0.050
-0.045
-0.040
-0.035
-0.030
-0.030
-0.035
-0.040
-0.045
-0.050
-0.055
-0.060
-0.060
-0.055
-0.050
-0.045
-0.040
-0.035
-0.035
-0.035
-0.040
-0.040
-0.045
-0.045
-0.045
-0.040
-0.040
-0.035
-0.030
-0.030
-0.030
-0.030
-0.030
-0.035
-0.035
-0.035
-0.030
-0.030
-0.025
-0.020
-0.015
-0.010
-0.010
-0.015
-0.020
-0.025
-0.030
-0.035
-0.035
-0.035
-0.030
-0.030
-0.025
-0.020
-0.020
-0.020
-0.020
-0.025
-0.025
-0.030
-0.035
-0.035
-0.040
-0.035
-0.035
-0.030
-0.025
-0.025
-0.025
-0.025
-0.025
-0.030
-0.030
-0.035
-0.035
-0.040
-0.040
-0.040
-0.040
-0.035
-0.035
-0.035
-0.035
-0.035
-0.035
-0.035
-0.035
-0.035
-0.035
-0.035
-0.035
-0.035
-0.035
-0.035
-0.030
-0.030
-0.025
-0.025
-0.030
-0.030
-0.035
-0.040
-0.040
-0.035
-0.030
-0.025
-0.015
-0.005
-0.005
-0.005
-0.015
-0.025
-0.040
-0.055
-0.070
-0.075
-0.080
-0.075
-0.065
-0.055
-0.045
-0.035
-0.030
-0.035
-0.040
-0.045
-0.055
-0.060
-0.060
-0.060
-0.060
-0.055
-0.050
-0.045
-0.045
-0.045
-0.045
-0.040
-0.040
-0.040
-0.035
-0.035
-0.030
-0.030
-0.030
-0.035
-0.035
-0.040
-0.045
-0.045
-0.045
-0.045
-0.035
-0.030
-0.015
-0.005
0.010
0.015
0.025
0.025
0.020
0.015
0.005
-0.010
-0.020
-0.030
-0.035
-0.035
-0.025
-0.015
0.000
0.015
0.025
0.030
0.035
0.030
0.025
0.020
0.010
0.005
0.000
0.000
0.000
0.005
0.005
0.005
0.005
0.000
-0.010
-0.015
-0.025
-0.035
-0.045
-0.050
-0.055
-0.060
-0.060
-0.060
-0.060
-0.055
-0.055
-0.050
-0.050
-0.055
-0.055
-0.060
-0.065
-0.070
-0.075
-0.070
-0.070
-0.060
-0.055
-0.050
-0.045
-0.045
-0.050
-0.060
-0.065
-0.070
-0.075
-0.075
-0.075
-0.070
-0.065
-0.065
-0.065
-0.065
-0.070
-0.080
-0.085
-0.085
-0.085
-0.070
-0.050
-0.015
0.030
0.090
0.165
0.245
0.340
0.430
0.520
0.595
0.650
0.675
0.670
0.630
0.560
0.460
0.350
0.230
0.115
0.015
-0.065
-0.115
-0.145
-0.150
-0.140
-0.120
-0.090
-0.065
-0.045
-0.035
-0.030
-0.025
-0.030
-0.030
-0.035
-0.040
-0.040
-0.035
-0.035
-0.035
-0.035
-0.035
-0.040
-0.040
-0.045
-0.045
-0.045
-0.045
-0.040
-0.040
-0.035
-0.035
-0.030
-0.030
-0.030
-0.025
-0.025
-0.020
-0.015
-0.010
-0.005
0.000
0.005
0.010
0.010
0.005
0.000
-0.010
-0.020
-0.025
-0.025
-0.025
-0.020
-0.015
-0.005
0.005
0.015
0.020
0.025
0.025
0.025
0.020
0.015
0.015
0.015
0.020
0.025
0.030
0.040
0.050
0.060
0.070
0.080
0.085
0.095
0.100
0.105
0.110
0.110
0.110
0.110
0.110
0.105
0.105
0.110
0.115
0.120
0.135
0.150
0.170
0.185
0.200
0.210
0.220
0.225
0.225
0.220
0.220
0.215
0.220
0.220
0.230
0.240
0.250
0.260
0.270
0.275
0.275
0.270
0.255
0.240
0.225
0.205
0.185
0.170
0.155
0.145
0.140
0.140
0.135
0.135
0.130
0.120
0.110
0.095
0.080
0.060
0.040
0.020
0.005
-0.005
-0.015
-0.020
-0.025
-0.025
-0.030
-0.035
-0.040
-0.045
-0.055
-0.060
-0.070
-0.075
-0.075
-0.070
-0.070
-0.060
-0.055
-0.050
-0.050
-0.050
-0.060
-0.065
-0.075
-0.085
-0.090
-0.095
-0.095
-0.090
-0.085
-0.080
-0.075
-0.075
-0.075
-0.080
-0.090
-0.095
-0.100
-0.100
-0.095
-0.095
-0.085
-0.080
-0.075
-0.070
-0.070
-0.070
-0.075
-0.075
-0.080
-0.080
-0.080
-0.080
-0.075
-0.075
-0.070
-0.070
-0.070
-0.070
-0.070
-0.070
-0.070
-0.070
-0.070
-0.075
-0.075
-0.075
-0.075
-0.075
-0.075
-0.075
-0.075
-0.070
-0.065
-0.065
-0.060
-0.055
-0.055
-0.055
-0.055
-0.055
-0.055
-0.055
-0.055
-0.055
-0.055
-0.055
-0.060
-0.060
-0.065
-0.070
-0.080
-0.085
-0.090
-0.085
-0.085
-0.075
-0.065
-0.055
-0.045
-0.045
-0.045
-0.050
-0.060
-0.070
-0.080
-0.085
-0.085
-0.085
-0.080
-0.075
-0.070
-0.065
-0.065
-0.065
-0.065
-0.070
-0.070
-0.070
-0.065
-0.060
-0.060
-0.055
-0.060
-0.065
-0.070
-0.080
-0.090
-0.100
-0.105
-0.105
-0.100
-0.095
-0.085
-0.075
-0.070
-0.065
-0.065
-0.065
-0.070
-0.075
-0.075
-0.075
-0.075
-0.075
-0.070
-0.070
-0.070
-0.070
-0.070
-0.075
-0.080
-0.085
-0.095
-0.095
-0.095
-0.095
-0.090
-0.080
-0.075
-0.070
-0.065
-0.065
-0.070
-0.075
-0.085
-0.090
-0.095
-0.100
-0.095
-0.090
-0.080
-0.070
-0.055
-0.045
-0.040
-0.035
-0.035
-0.035
-0.040
-0.045
-0.050
-0.055
-0.055
-0.050
-0.045
-0.035
-0.030
-0.025
-0.020
-0.020
-0.025
-0.030
-0.035
-0.040
-0.040
-0.040
-0.030
-0.025
-0.015
-0.015
-0.015
-0.025
-0.040
-0.055
-0.075
-0.095
-0.105
-0.110
-0.105
-0.095
-0.080
-0.060
-0.050
-0.040
-0.040
-0.050
-0.060
-0.075
-0.090
-0.105
-0.110
-0.110
-0.110
-0.100
-0.090
-0.085
-0.080
-0.075
-0.080
-0.085
-0.090
-0.095
-0.100
-0.105
-0.105
-0.105
-0.100
-0.095
-0.095
-0.090
-0.090
-0.095
-0.100
-0.110
-0.120
-0.125
-0.130
-0.125
-0.115
-0.090
-0.055
-0.005
0.060
0.140
0.235
0.335
0.435
0.535
0.615
0.680
0.710
0.705
0.665
0.585
0.480
0.360
0.230
0.105
-0.005
-0.090
-0.145
-0.175
-0.175
-0.165
-0.140
-0.115
-0.090
-0.070
-0.060
-0.055
-0.055
-0.060
-0.060
-0.060
-0.060
-0.055
-0.055
-0.060
-0.065
-0.070
-0.080
-0.085
-0.085
-0.085
-0.080
-0.070
-0.055
-0.040
-0.030
-0.025
-0.020
-0.025
-0.035
-0.045
-0.050
-0.060
-0.060
-0.060
-0.055
-0.050
-0.040
-0.030
-0.025
-0.020
-0.015
-0.010
-0.005
-0.005
0.000
0.005
0.005
0.005
0.000
-0.005
-0.010
-0.015
-0.015
-0.015
-0.015
-0.005
0.005
0.015
0.025
0.035
0.045
0.050
0.055
0.055
0.055
0.060
0.060
0.060
0.060
0.060
0.055
0.055
0.055
0.060
0.065
0.075
0.085
0.095
0.105
0.115
0.125
0.135
0.145
0.150
0.165
0.175
0.190
0.200
0.210
0.220
0.225
0.225
0.230
0.230
0.235
0.240
0.250
0.260
0.270
0.280
0.285
0.285
0.280
0.270
0.260
0.245
0.230
0.215
0.200
0.185
0.175
0.160
0.150
0.135
0.125
0.115
0.105
0.100
0.090
0.085
0.080
0.070
0.065
0.055
0.045
0.030
0.020
0.010
0.000
-0.010
-0.015
-0.020
-0.020
-0.025
-0.025
-0.025
-0.025
-0.025
-0.025
-0.030
-0.030
-0.030
-0.035
-0.035
-0.035
-0.040
-0.040
-0.045
-0.045
-0.050
-0.055
-0.060
-0.065
-0.070
-0.075
-0.075
-0.075
-0.065
-0.060
-0.050
-0.040
-0.035
-0.030
-0.030
-0.035
-0.040
-0.045
-0.050
-0.055
-0.055
-0.055
-0.050
-0.040
-0.035
-0.025
-0.020
-0.015
-0.010
-0.010
-0.015
-0.015
-0.025
-0.030
-0.035
-0.045
-0.050
-0.050
-0.050
-0.045
-0.040
-0.035
-0.030
-0.025
-0.025
-0.030
-0.035
-0.045
-0.055
-0.060
-0.060
-0.055
-0.050
-0.035
-0.020
-0.005
0.005
0.010
0.015
0.005
-0.005
-0.015
-0.030
-0.040
-0.050
-0.055
-0.055
-0.050
-0.045
-0.040
-0.035
-0.030
-0.030
-0.030
-0.035
-0.040
-0.050
-0.055
-0.055
-0.055
-0.055
-0.055
-0.050
-0.050
-0.055
-0.055
-0.060
-0.065
-0.070
-0.065
-0.065
-0.055
-0.045
-0.035
-0.030
-0.025
-0.020
-0.025
-0.030
-0.040
-0.045
-0.050
-0.055
-0.055
-0.055
-0.055
-0.055
-0.055
-0.055
-0.060
-0.060
-0.060
-0.060
-0.060
-0.055
-0.050
-0.050
-0.045
-0.045
-0.045
-0.050
-0.060
-0.065
-0.070
-0.080
-0.080
-0.085
-0.085
-0.080
-0.075
-0.065
-0.055
-0.045
-0.035
-0.030
-0.030
-0.035
-0.045
-0.055
-0.065
-0.075
-0.080
-0.080
-0.075
-0.065
-0.055
-0.045
-0.040
-0.040
-0.040
-0.050
-0.055
-0.060
-0.060
-0.055
-0.050
-0.035
-0.025
-0.015
-0.010
-0.015
-0.020
-0.030
-0.045
-0.055
-0.060
-0.060
-0.055
-0.050
-0.035
-0.025
-0.015
-0.010
0.000
0.005
0.010
0.015
0.015
0.020
0.020
0.020
0.015
0.005
-0.010
-0.020
-0.030
-0.040
-0.040
-0.040
-0.035
-0.030
-0.030
-0.030
-0.035
-0.040
-0.050
-0.065
-0.075
-0.080
-0.085
-0.085
-0.080
-0.075
-0.065
-0.060
-0.060
-0.055
-0.055
-0.055
-0.055
-0.055
-0.060
-0.060
-0.065
-0.070
-0.080
-0.080
-0.085
-0.085
-0.085
-0.080
-0.075
-0.075
-0.075
-0.080
-0.085
-0.095
-0.105
-0.115
-0.120
-0.120
-0.120
-0.110
-0.100
-0.085
-0.065
-0.035
0.005
0.055
0.125
0.205
0.295
0.390
0.480
0.555
0.610
0.635
0.625
0.580
0.505
0.405
0.295
0.185
0.080
-0.010
-0.080
-0.125
-0.150
-0.155
-0.150
-0.135
-0.115
-0.090
-0.070
-0.055
-0.040
-0.030
-0.020
-0.015
-0.010
-0.010
-0.015
-0.020
-0.030
-0.040
-0.045
-0.055
-0.060
-0.060
-0.055
-0.050
-0.040
-0.030
-0.025
-0.015
-0.015
-0.010
-0.010
-0.010
-0.010
-0.010
-0.010
-0.010
-0.010
-0.015
-0.020
-0.025
-0.030
-0.030
-0.030
-0.020
-0.010
0.005
0.015
0.025
0.025
0.025
0.015
0.005
-0.005
-0.015
-0.015
-0.015
-0.005
0.005
0.015
0.030
0.035
0.040
0.045
0.045
0.050
0.050
0.055
0.065
0.070
0.075
0.075
0.075
0.070
0.070
0.070
0.075
0.080
0.095
0.105
0.120
0.135
0.145
0.150
0.155
0.155
0.160
0.160
0.165
0.175
0.185
0.195
0.200
0.205
0.205
0.205
0.205
0.200
0.205
0.205
0.215
0.220
0.230
0.240
0.245
0.250
0.245
0.240
0.225
0.215
0.200
0.190
0.180
0.170
0.165
0.160
0.155
0.150
0.140
0.130
0.115
0.100
0.085
0.070
0.055
0.045
0.035
0.025
0.020
0.015
0.010
0.005
-0.005
-0.015
-0.025
-0.030
-0.040
-0.045
-0.045
-0.045
-0.040
-0.040
-0.035
-0.040
-0.040
-0.045
-0.050
-0.055
-0.060
-0.065
-0.070
-0.070
-0.070
-0.075
-0.075
-0.080
-0.080
-0.080
-0.080
-0.075
-0.070
-0.065
-0.055
-0.050
-0.045
-0.045
-0.050
-0.050
-0.060
-0.065
-0.070
-0.075
-0.075
-0.075
-0.070
-0.065
-0.060
-0.060
-0.055
-0.055
-0.050
-0.050
-0.050
-0.045
-0.045
-0.045
-0.045
-0.050
-0.050
-0.055
-0.055
-0.055
-0.050
-0.045
-0.035
-0.030
-0.020
-0.020
-0.020
-0.020
-0.030
-0.035
-0.045
-0.050
-0.055
-0.055
-0.050
-0.045
-0.040
-0.035
-0.035
-0.030
-0.035
-0.035
-0.040
-0.045
-0.045
-0.050
-0.050
-0.050
-0.050
-0.045
-0.045
-0.040
-0.035
-0.030
-0.030
-0.030
-0.035
-0.040
-0.045
-0.050
-0.050
-0.050
-0.050
-0.050
-0.050
-0.050
-0.050
-0.055
-0.060
-0.065
-0.065
-0.070
-0.065
-0.065
-0.060
-0.055
-0.050
-0.050
-0.050
-0.055
-0.060
-0.060
-0.065
-0.070
-0.070
-0.065
-0.065
-0.065
-0.065
-0.065
-0.065
-0.070
-0.070
-0.070
-0.070
-0.070
-0.065
-0.060
-0.055
-0.055
-0.055
-0.055
-0.060
-0.060
-0.060
-0.060
-0.060
-0.060
-0.055
-0.055
-0.055
-0.055
-0.060
-0.060
-0.065
-0.065
-0.070
-0.065
-0.065
-0.060
-0.055
-0.055
-0.050
-0.050
-0.050
-0.045
-0.045
-0.040
-0.035
-0.030
-0.025
-0.020
-0.020
-0.015
-0.020
-0.020
-0.020
-0.025
-0.020
-0.015
-0.010
0.000
0.005
0.010
0.015
0.010
0.000
-0.015
-0.030
-0.040
-0.055
-0.060
-0.065
-0.060
-0.060
-0.055
-0.050
-0.050
-0.055
-0.060
-0.070
-0.075
-0.080
-0.085
-0.085
-0.080
-0.075
-0.070
-0.065
-0.060
-0.065
-0.065
-0.070
-0.075
-0.080
-0.085
-0.085
-0.080
-0.075
-0.065
-0.060
-0.055
-0.050
-0.055
-0.060
-0.070
-0.085
-0.100
-0.110
-0.120
-0.120
-0.120
-0.115
-0.105
-0.100
-0.095
-0.090
-0.090
-0.090
-0.090
-0.085
-0.065
-0.035
0.010
0.070
0.145
0.230
0.320
0.405
0.480
0.540
0.575
0.585
0.565
0.520
0.445
0.360
0.260
0.160
0.070
-0.010
-0.070
-0.105
-0.125
-0.125
-0.110
-0.090
-0.070
-0.055
-0.045
-0.045
-0.050
-0.055
-0.065
-0.070
-0.075
-0.070
-0.065
-0.050
-0.040
-0.030
-0.025
-0.020
-0.025
-0.030
-0.040
-0.050
-0.060
-0.065
-0.060
-0.055
-0.045
-0.035
-0.025
-0.015
-0.010
-0.010
-0.010
-0.015
-0.020
-0.025
-0.025
-0.030
-0.030
-0.030
-0.025
-0.025
-0.025
-0.025
-0.020
-0.015
-0.015
-0.005
0.000
0.010
0.015
0.025
0.030
0.035
0.035
0.035
0.035
0.030
0.030
0.025
0.025
0.025
0.025
0.025
0.030
0.035
0.045
0.055
0.065
0.075
0.080
0.085
0.090
0.090
0.090
0.090
0.090
0.090
0.095
0.105
0.120
0.135
0.155
0.170
0.180
0.190
0.200
0.200
0.200
0.200
0.200
0.205
0.205
0.210
0.215
0.220
0.225
0.230
0.230
0.230
0.230
0.225
0.225
0.220
0.215
0.210
0.205
0.195
0.185
0.175
0.170
0.160
0.150
0.145
0.135
0.125
0.115
0.100
0.080
0.065
0.050
0.035
0.030
0.025
0.025
0.030
0.035
0.035
0.035
0.025
0.015
0.000
-0.015
-0.025
-0.035
-0.035
-0.035
-0.035
-0.035
-0.035
-0.035
-0.045
-0.055
-0.070
-0.085
-0.090
-0.095
-0.090
-0.080
-0.065
-0.050
-0.040
-0.030
-0.025
-0.030
-0.035
-0.045
-0.055
-0.065
-0.065
-0.065
-0.065
-0.060
-0.055
-0.050
-0.050
-0.050
-0.050
-0.055
-0.055
-0.055
-0.055
-0.050
-0.045
-0.040
-0.035
-0.035
-0.035
-0.040
-0.050
-0.055
-0.060
-0.060
-0.055
-0.050
-0.040
-0.030
-0.020
-0.015
-0.015
-0.015
-0.020
-0.025
-0.035
-0.040
-0.045
-0.055
-0.055
-0.060
-0.065
-0.065
-0.065
-0.065
-0.065
-0.065
-0.060
-0.055
-0.050
-0.050
-0.050
-0.050
-0.050
-0.055
-0.060
-0.060
-0.060
-0.060
-0.060
-0.060
-0.055
-0.055
-0.050
-0.050
-0.045
-0.045
-0.040
-0.040
-0.035
-0.035
-0.035
-0.035
-0.040
-0.045
-0.055
-0.065
-0.075
-0.080
-0.085
-0.085
-0.085
-0.080
-0.075
-0.070
-0.065
-0.065
-0.070
-0.075
-0.075
-0.075
-0.070
-0.065
-0.055
-0.040
-0.035
-0.030
-0.030
-0.035
-0.045
-0.060
-0.075
-0.085
-0.090
-0.085
-0.075
-0.065
-0.055
-0.045
-0.045
-0.045
-0.055
-0.065
-0.070
-0.080
-0.080
-0.080
-0.075
-0.065
-0.060
-0.060
-0.060
-0.070
-0.080
-0.085
-0.095
-0.095
-0.090
-0.085
-0.070
-0.055
-0.045
-0.035
-0.030
-0.030
-0.035
-0.040
-0.045
-0.050
-0.050
-0.050
-0.045
-0.035
-0.030
-0.020
-0.015
-0.015
-0.015
-0.015
-0.020
-0.025
-0.025
-0.030
-0.030
-0.025
-0.020
-0.010
-0.005
0.005
0.010
0.010
0.005
-0.005
-0.020
-0.040
-0.060
-0.075
-0.090
-0.095
-0.095
-0.090
-0.075
-0.065
-0.055
-0.045
-0.045
-0.045
-0.050
-0.060
-0.070
-0.075
-0.075
-0.075
-0.070
-0.065
-0.060
-0.060
-0.065
-0.070
-0.080
-0.090
-0.095
-0.095
-0.095
-0.090
-0.080
-0.075
-0.070
-0.065
-0.065
-0.070
-0.075
-0.080
-0.085
-0.090
-0.090
-0.085
-0.085
-0.090
-0.090
-0.095
-0.100
-0.100
-0.095
-0.075
-0.040
0.015
0.085
0.165
0.260
0.360
0.455
0.535
0.600
0.640
0.650
0.625
0.575
0.495
0.400
0.290
0.180
0.075
-0.015
-0.080
-0.125
-0.140
-0.140
-0.120
-0.095
-0.070
-0.050
-0.035
-0.030
-0.035
-0.040
-0.050
-0.055
-0.060
-0.055
-0.050
-0.040
-0.030
-0.025
-0.015
-0.015
-0.015
-0.020
-0.025
-0.030
-0.035
-0.035
-0.035
-0.035
-0.035
-0.030
-0.030
-0.025
-0.025
-0.025
-0.030
-0.030
-0.030
-0.035
-0.035
-0.030
-0.030
-0.025
-0.015
-0.010
-0.005
-0.005
-0.005
-0.005
-0.010
-0.015
-0.015
-0.015
-0.015
-0.010
-0.005
0.005
0.015
0.020
0.025
0.025
0.025
0.025
0.030
0.035
0.040
0.050
0.060
0.065
0.070
0.070
0.070
0.065
0.060
0.060
0.060
0.070
0.080
0.095
0.115
0.130
0.145
0.155
0.165
0.170
0.175
0.180
0.185
0.190
0.195
0.195
0.195
0.195
0.195
0.195
0.200
0.210
0.220
0.235
0.250
0.260
0.265
0.265
0.260
0.255
0.245
0.235
0.230
0.225
0.220
0.220
0.220
0.220
0.215
0.205
0.190
0.175
0.155
0.135
0.120
0.105
0.090
0.075
0.065
0.055
0.050
0.045
0.040
0.040
0.035
0.030
0.025
0.020
0.010
-0.005
-0.020
-0.035
-0.045
-0.055
-0.060
-0.060
-0.060
-0.055
-0.050
-0.045
-0.045
-0.040
-0.040
-0.040
-0.040
-0.040
-0.045
-0.050
-0.055
-0.065
-0.070
-0.075
-0.080
-0.080
-0.080
-0.075
-0.070
-0.065
-0.060
-0.060
-0.060
-0.065
-0.070
-0.075
-0.080
-0.085
-0.080
-0.075
-0.070
-0.060
-0.045
-0.035
-0.030
-0.025
-0.025
-0.025
-0.035
-0.040
-0.045
-0.055
-0.055
-0.055
-0.055
-0.050
-0.045
-0.040
-0.035
-0.035
-0.035
-0.035
-0.035
-0.035
-0.035
-0.040
-0.040
-0.045
-0.045
-0.050
-0.050
-0.055
-0.055
-0.055
-0.050
-0.050
-0.045
-0.045
-0.045
-0.045
-0.050
-0.050
-0.050
-0.050
-0.050
-0.045
-0.045
-0.040
-0.035
-0.035
-0.035
-0.035
-0.035
-0.035
-0.040
-0.040
-0.045
-0.050
-0.050
-0.055
-0.060
-0.060
-0.065
-0.060
-0.060
-0.055
-0.055
-0.055
-0.055
-0.055
-0.060
-0.065
-0.070
-0.075
-0.075
-0.075
-0.070
-0.065
-0.055
-0.050
-0.045
-0.045
-0.050
-0.055
-0.060
-0.065
-0.070
-0.070
-0.070
-0.065
-0.060
-0.060
-0.055
-0.055
-0.055
-0.060
-0.065
-0.075
-0.085
-0.090
-0.095
-0.100
-0.100
-0.095
-0.090
-0.085
-0.080
-0.075
-0.070
-0.065
-0.060
-0.060
-0.055
-0.055
-0.060
-0.060
-0.065
-0.070
-0.070
-0.075
-0.080
-0.080
-0.075
-0.070
-0.065
-0.065
-0.060
-0.060
-0.060
-0.060
-0.065
-0.070
-0.070
-0.070
-0.065
-0.060
-0.055
-0.050
-0.045
-0.040
-0.035
-0.030
-0.030
-0.020
-0.015
-0.005
0.005
0.010
0.015
0.020
0.020
0.015
0.010
0.005
0.000
-0.005
-0.010
-0.005
-0.005
-0.005
-0.010
-0.015
-0.020
-0.035
-0.045
-0.060
-0.070
-0.080
-0.080
-0.080
-0.070
-0.060
-0.055
-0.045
-0.045
-0.045
-0.050
-0.055
-0.065
-0.070
-0.080
-0.080
-0.085
-0.085
-0.085
-0.080
-0.080
-0.080
-0.080
-0.085
-0.085
-0.085
-0.090
-0.090
-0.085
-0.085
-0.085
-0.080
-0.080
-0.080
-0.080
-0.085
-0.095
-0.100
-0.110
-0.120
-0.130
-0.135
-0.135
-0.130
-0.120
-0.100
-0.065
-0.020
0.035
0.105
0.185
0.275
0.370
0.465
0.555
0.630
0.685
0.710
0.705
0.660
0.585
0.485
0.360
0.235
0.110
0.005
-0.080
-0.135
-0.165
-0.170
-0.150
-0.125
-0.095
-0.070
-0.050
-0.035
-0.030
-0.030
-0.035
-0.040
-0.045
-0.050
-0.050
-0.050
-0.050
-0.050
-0.050
-0.050
-0.045
-0.045
-0.040
-0.040
-0.035
-0.030
-0.030
-0.030
-0.035
-0.040
-0.045
-0.050
-0.055
-0.055
-0.055
-0.045
-0.035
-0.025
-0.015
-0.005
0.005
0.005
0.005
0.000
-0.010
-0.015
-0.020
-0.025
-0.025
-0.025
-0.020
-0.010
-0.005
0.005
0.010
0.015
0.020
0.025
0.030
0.035
0.040
0.045
0.050
0.050
0.050
0.045
0.040
0.035
0.030
0.025
0.020
0.020
0.025
0.035
0.050
0.070
0.085
0.105
0.120
0.130
0.135
0.140
0.140
0.145
0.145
0.155
0.165
0.180
0.195
0.210
0.220
0.230
0.235
0.235
0.230
0.225
0.220
0.215
0.215
0.220
0.225
0.235
0.245
0.250
0.250
0.250
0.240
0.230
0.215
0.205
0.195
0.190
0.185
0.180
0.180
0.180
0.175
0.165
0.150
0.130
0.110
0.090
0.070
0.055
0.040
0.030
0.020
0.015
0.005
0.000
-0.010
-0.020
-0.025
-0.035
-0.045
-0.050
-0.055
-0.060
-0.060
-0.065
-0.065
-0.070
-0.070
-0.075
-0.075
-0.075
-0.075
-0.075
-0.075
-0.075
-0.075
-0.075
-0.075
-0.075
-0.075
-0.075
-0.075
-0.070
-0.065
-0.065
-0.060
-0.060
-0.060
-0.060
-0.060
-0.060
-0.060
-0.060
-0.060
-0.065
-0.070
-0.075
-0.080
-0.085
-0.085
-0.085
-0.075
-0.070
-0.060
-0.050
-0.045
-0.040
-0.045
-0.045
-0.055
-0.060
-0.065
-0.070
-0.065
-0.060
-0.055
-0.045
-0.040
-0.040
-0.040
-0.045
-0.050
-0.060
-0.065
-0.065
-0.060
-0.050
-0.040
-0.030
-0.020
-0.015
-0.015
-0.025
-0.035
-0.050
-0.060
-0.070
-0.075
-0.075
-0.070
-0.060
-0.050
-0.040
-0.035
-0.035
-0.035
-0.040
-0.050
-0.060
-0.065
-0.070
-0.075
-0.075
-0.070
-0.065
-0.060
-0.055
-0.050
-0.050
-0.050
-0.050
-0.060
-0.065
-0.070
-0.075
-0.070
-0.070
-0.060
-0.050
-0.040
-0.035
-0.035
-0.035
-0.040
-0.050
-0.055
-0.060
-0.065
-0.060
-0.055
-0.050
-0.050
-0.050
-0.055
-0.060
-0.070
-0.085
-0.090
-0.095
-0.090
-0.085
-0.070
-0.060
-0.050
-0.045
-0.045
-0.045
-0.050
-0.060
-0.060
-0.065
-0.065
-0.060
-0.060
-0.055
-0.055
-0.060
-0.060
-0.065
-0.070
-0.075
-0.075
-0.075
-0.075
-0.070
-0.070
-0.070
-0.070
-0.070
-0.075
-0.080
-0.085
-0.090
-0.095
-0.100
-0.100
-0.100
-0.095
-0.085
-0.075
-0.065
-0.060
-0.055
-0.050
-0.050
-0.055
-0.060
-0.065
-0.070
-0.070
-0.065
-0.060
-0.050
-0.040
-0.035
-0.025
-0.020
-0.015
-0.015
-0.020
-0.020
-0.020
-0.025
-0.025
-0.030
-0.030
-0.025
-0.025
-0.020
-0.015
-0.005
0.000
0.005
0.015
0.015
0.020
0.020
0.015
0.010
0.000
-0.005
-0.015
-0.030
-0.040
-0.045
-0.055
-0.060
-0.065
-0.065
-0.065
-0.065
-0.065
-0.065
-0.070
-0.070
-0.075
-0.080
-0.080
-0.080
-0.075
-0.070
-0.065
-0.060
-0.060
-0.060
-0.065
-0.070
-0.080
-0.085
-0.095
-0.095
-0.095
-0.095
-0.090
-0.085
-0.085
-0.080
-0.080
-0.085
-0.085
-0.090
-0.095
-0.100
-0.105
-0.110
-0.115
-0.120
-0.120
-0.120
-0.105
-0.090
-0.060
-0.015
0.035
0.105
0.180
0.270
0.370
0.470
0.565
0.645
0.710
0.740
0.735
0.690
0.605
0.495
0.370
0.235
0.110
0.005
-0.070
-0.120
-0.135
-0.130
-0.110
-0.090
-0.065
-0.050
-0.045
-0.045
-0.050
-0.055
-0.060
-0.065
-0.065
-0.065
-0.065
-0.060
-0.060
-0.060
-0.060
-0.055
-0.050
-0.045
-0.035
-0.030
-0.020
-0.020
-0.020
-0.020
-0.025
-0.030
-0.035
-0.040
-0.040
-0.035
-0.030
-0.020
-0.010
-0.005
0.005
0.010
0.010
0.010
0.010
0.010
0.005
0.000
-0.005
-0.010
-0.010
-0.010
-0.010
-0.005
0.000
0.010
0.020
0.030
0.040
0.045
0.050
0.050
0.045
0.040
0.035
0.030
0.025
0.025
0.025
0.030
0.040
0.045
0.055
0.065
0.075
0.085
0.090
0.100
0.110
0.115
0.130
0.140
0.150
0.160
0.170
0.175
0.185
0.190
0.190
0.195
0.195
0.200
0.205
0.210
0.215
0.225
0.230
0.240
0.250
0.255
0.260
0.265
0.270
0.275
0.275
0.275
0.270
0.265
0.260
0.255
0.245
0.240
0.235
0.230
0.230
0.225
0.215
0.205
0.195
0.180
0.165
0.150
0.130
0.115
0.095
0.080
0.065
0.055
0.045
0.035
0.025
0.020
0.015
0.010
0.005
0.000
-0.005
-0.010
-0.015
-0.020
-0.025
-0.030
-0.035
-0.035
-0.035
-0.035
-0.035
-0.035
-0.035
-0.035
-0.035
-0.040
-0.040
-0.045
-0.050
-0.055
-0.060
-0.065
-0.070
-0.070
-0.070
-0.065
-0.060
-0.055
-0.050
-0.045
-0.040
-0.035
-0.040
-0.045
-0.050
-0.060
-0.065
-0.070
-0.070
-0.065
-0.060
-0.050
-0.045
-0.035
-0.030
-0.030
-0.030
-0.030
-0.035
-0.035
-0.040
-0.035
-0.035
-0.030
-0.025
-0.025
-0.025
-0.030
-0.035
-0.045
-0.050
-0.055
-0.060
-0.060
-0.055
-0.050
-0.040
-0.030
-0.025
-0.020
-0.020
-0.020
-0.025
-0.030
-0.035
-0.045
-0.055
-0.060
-0.065
-0.070
-0.075
-0.075
-0.075
-0.075
-0.070
-0.065
-0.060
-0.060
-0.060
-0.060
-0.065
-0.070
-0.080
-0.085
-0.090
-0.090
-0.085
-0.075
-0.070
-0.060
-0.055
-0.050
-0.055
-0.060
-0.065
-0.070
-0.075
-0.075
-0.070
-0.065
-0.060
-0.055
-0.050
-0.045
-0.045
-0.045
-0.050
-0.055
-0.060
-0.065
-0.075
-0.085
-0.090
-0.095
-0.095
-0.095
-0.085
-0.075
-0.060
-0.050
-0.040
-0.035
-0.040
-0.050
-0.060
-0.075
-0.090
-0.095
-0.095
-0.090
-0.085
-0.075
-0.065
-0.060
-0.055
-0.060
-0.060
-0.060
-0.060
-0.060
-0.055
-0.045
-0.045
-0.045
-0.050
-0.060
-0.070
-0.080
-0.090
-0.095
-0.095
-0.090
-0.080
-0.075
-0.070
-0.070
-0.075
-0.085
-0.090
-0.095
-0.095
-0.090
-0.080
-0.070
-0.060
-0.050
-0.040
-0.035
-0.035
-0.035
-0.030
-0.030
-0.030
-0.035
-0.035
-0.040
-0.045
-0.050
-0.050
-0.045
-0.040
-0.025
-0.010
0.005
0.020
0.030
0.035
0.030
0.020
0.005
-0.010
-0.025
-0.040
-0.050
-0.055
-0.060
-0.060
-0.065
-0.065
-0.070
-0.070
-0.075
-0.075
-0.075
-0.075
-0.070
-0.070
-0.070
-0.065
-0.065
-0.070
-0.070
-0.075
-0.080
-0.085
-0.095
-0.100
-0.100
-0.100
-0.100
-0.095
-0.085
-0.080
-0.075
-0.075
-0.080
-0.085
-0.095
-0.100
-0.105
-0.105
-0.100
-0.090
-0.080
-0.075
-0.070
-0.075
-0.085
-0.100
-0.115
-0.125
-0.130
-0.120
-0.100
-0.070
-0.025
0.030
0.090
0.160
0.230
0.310
0.385
0.460
0.525
0.580
0.610
0.615
0.590
0.530
0.445
0.335
0.220
0.100
-0.005
-0.090
-0.150
-0.180
-0.190
-0.175
-0.155
-0.125
-0.100
-0.075
-0.065
-0.055
-0.055
-0.055
-0.060
-0.060
-0.065
-0.065
-0.060
-0.055
-0.050
-0.045
-0.040
-0.035
-0.035
-0.035
-0.035
-0.035
-0.040
-0.045
-0.045
-0.050
-0.050
-0.055
-0.055
-0.055
-0.055
-0.050
-0.050
-0.045
-0.040
-0.035
-0.030
-0.020
-0.015
-0.010
-0.005
-0.005
-0.010
-0.010
-0.010
-0.010
-0.005
0.000
0.005
0.010
0.015
0.015
0.015
0.010
0.005
0.000
0.000
0.000
0.005
0.020
0.030
0.045
0.055
0.060
0.060
0.055
0.045
0.035
0.030
0.030
0.030
0.040
0.055
0.075
0.095
0.115
0.130
0.145
0.150
0.155
0.160
0.160
0.160
0.160
0.160
0.165
0.170
0.175
0.185
0.195
0.205
0.215
0.225
0.230
0.235
0.235
0.240
0.240
0.240
0.240
0.240
0.240
0.240
0.240
0.235
0.230
0.220
0.210
0.200
0.190
0.180
0.170
0.160
0.150
0.140
0.130
0.120
0.110
0.100
0.085
0.075
0.065
0.055
0.040
0.030
0.020
0.010
0.005
0.005
0.000
0.005
0.005
0.000
-0.005
-0.015
-0.025
-0.040
-0.050
-0.060
-0.065
-0.065
-0.060
-0.055
-0.055
-0.050
-0.050
-0.055
-0.060
-0.070
-0.075
-0.080
-0.080
-0.080
-0.075
-0.070
-0.065
-0.060
-0.055
-0.055
-0.055
-0.050
-0.050
-0.045
-0.040
-0.035
-0.035
-0.035
-0.035
-0.045
-0.055
-0.060
-0.070
-0.075
-0.075
-0.070
-0.060
-0.050
-0.040
-0.030
-0.020
-0.015
-0.020
-0.020
-0.030
-0.040
-0.050
-0.055
-0.060
-0.060
-0.060
-0.050
-0.040
-0.030
-0.020
-0.015
-0.010
-0.010
-0.015
-0.025
-0.035
-0.045
-0.055
-0.060
-0.065
-0.065
-0.060
-0.050
-0.045
-0.040
-0.040
-0.035
-0.040
-0.045
-0.050
-0.050
-0.055
-0.055
-0.060
-0.060
-0.060
-0.060
-0.065
-0.065
-0.060
-0.055
-0.050
-0.035
-0.025
-0.015
-0.010
-0.015
-0.025
-0.040
-0.060
-0.080
-0.100
-0.110
-0.110
-0.105
-0.090
-0.070
-0.055
-0.040
-0.035
-0.035
-0.045
-0.055
-0.065
-0.075
-0.075
-0.075
-0.065
-0.060
-0.055
-0.050
-0.055
-0.060
-0.070
-0.075
-0.080
-0.080
-0.075
-0.070
-0.065
-0.060
-0.065
-0.070
-0.080
-0.085
-0.090
-0.095
-0.090
-0.080
-0.065
-0.055
-0.045
-0.040
-0.045
-0.050
-0.060
-0.070
-0.075
-0.075
-0.070
-0.065
-0.060
-0.050
-0.050
-0.050
-0.055
-0.060
-0.065
-0.070
-0.070
-0.060
-0.055
-0.045
-0.035
-0.030
-0.025
-0.025
-0.030
-0.035
-0.045
-0.050
-0.055
-0.055
-0.055
-0.045
-0.040
-0.025
-0.015
-0.005
0.005
0.010
0.015
0.020
0.015
0.015
0.005
0.000
-0.005
-0.005
-0.010
-0.010
-0.015
-0.015
-0.020
-0.025
-0.030
-0.040
-0.045
-0.050
-0.050
-0.055
-0.055
-0.060
-0.060
-0.065
-0.070
-0.075
-0.075
-0.080
-0.075
-0.070
-0.065
-0.055
-0.050
-0.050
-0.050
-0.055
-0.065
-0.075
-0.085
-0.090
-0.095
-0.095
-0.090
-0.085
-0.080
-0.070
-0.070
-0.065
-0.065
-0.065
-0.070
-0.080
-0.085
-0.100
-0.110
-0.120
-0.130
-0.135
-0.135
-0.125
-0.115
-0.090
-0.060
-0.020
0.025
0.085
0.160
0.240
0.335
0.430
0.525
0.610
0.670
0.705
0.700
0.660
0.580
0.480
0.360
0.235
0.120
0.030
-0.040
-0.085
-0.105
-0.110
-0.100
-0.090
-0.080
-0.075
-0.070
-0.060
-0.055
-0.050
-0.040
-0.030
-0.020
-0.020
-0.020
-0.030
-0.045
-0.060
-0.075
-0.085
-0.090
-0.090
-0.080
-0.070
-0.060
-0.055
-0.050
-0.045
-0.045
-0.050
-0.050
-0.045
-0.040
-0.030
-0.020
-0.010
0.000
0.010
0.015
0.015
0.015
0.010
0.000
-0.005
-0.015
-0.020
-0.020
-0.020
-0.015
-0.005
0.000
0.010
0.015
0.020
0.020
0.015
0.010
0.000
-0.005
-0.010
-0.010
-0.005
0.005
0.020
0.035
0.050
0.065
0.080
0.085
0.090
0.090
0.090
0.090
0.090
0.090
0.095
0.100
0.105
0.115
0.120
0.130
0.135
0.140
0.145
0.155
0.165
0.175
0.185
0.195
0.205
0.210
0.220
0.230
0.235
0.240
0.245
0.250
0.250
0.250
0.250
0.245
0.240
0.235
0.230
0.230
0.235
0.240
0.245
0.250
0.255
0.250
0.245
0.230
0.210
0.190
0.165
0.145
0.125
0.110
0.100
0.090
0.080
0.075
0.070
0.060
0.050
0.040
0.030
0.020
0.010
-0.005
-0.015
-0.030
-0.040
-0.050
-0.060
-0.065
-0.065
-0.065
-0.060
-0.055
-0.050
-0.050
-0.050
-0.055
-0.060
-0.070
-0.075
-0.080
-0.085
-0.080
-0.075
-0.070
-0.065
-0.060
-0.055
-0.060
-0.060
-0.065
-0.070
-0.075
-0.075
-0.075
-0.075
-0.075
-0.070
-0.070
-0.070
-0.075
-0.080
-0.085
-0.090
-0.090
-0.095
-0.090
-0.090
-0.085
-0.075
-0.065
-0.060
-0.050
-0.045
-0.045
-0.045
-0.045
-0.050
-0.050
-0.055
-0.055
-0.055
-0.055
-0.055
-0.050
-0.050
-0.055
-0.055
-0.060
-0.065
-0.065
-0.065
-0.060
-0.050
-0.045
-0.035
-0.025
-0.020
-0.020
-0.020
-0.030
-0.040
-0.050
-0.060
-0.070
-0.075
-0.080
-0.080
-0.075
-0.075
-0.070
-0.065
-0.060
-0.060
-0.055
-0.055
-0.055
-0.055
-0.055
-0.055
-0.055
-0.060
-0.060
-0.065
-0.070
-0.075
-0.075
-0.075
-0.070
-0.065
-0.060
-0.055
-0.050
-0.050
-0.050
-0.050
-0.055
-0.060
-0.065
-0.070
-0.070
-0.065
-0.060
-0.060
-0.055
-0.055
-0.055
-0.055
-0.060
-0.060
-0.060
-0.060
-0.060
-0.060
-0.060
-0.060
-0.065
-0.070
-0.080
-0.085
-0.090
-0.090
-0.090
-0.085
-0.075
-0.070
-0.060
-0.055
-0.055
-0.055
-0.060
-0.060
-0.065
-0.065
-0.065
-0.065
-0.065
-0.065
-0.065
-0.065
-0.065
-0.065
-0.065
-0.060
-0.055
-0.050
-0.040
-0.035
-0.030
-0.030
-0.030
-0.035
-0.040
-0.050
-0.055
-0.055
-0.055
-0.050
-0.040
-0.025
-0.015
-0.005
0.005
0.010
0.005
0.000
-0.005
-0.015
-0.020
-0.020
-0.015
-0.005
0.005
0.010
0.015
0.015
0.005
-0.010
-0.035
-0.055
-0.075
-0.090
-0.100
-0.100
-0.095
-0.090
-0.085
-0.080
-0.080
-0.080
-0.085
-0.095
-0.100
-0.100
-0.095
-0.090
-0.085
-0.080
-0.075
-0.075
-0.080
-0.085
-0.095
-0.105
-0.110
-0.110
-0.105
-0.100
-0.095
-0.085
-0.080
-0.080
-0.085
-0.090
-0.100
-0.115
-0.125
-0.130
-0.135
-0.130
-0.130
-0.125
-0.120
-0.115
-0.105
-0.095
-0.075
-0.040
0.010
0.075
0.160
0.260
0.365
0.475
0.575
0.660
0.720
0.750
0.745
0.700
0.625
0.525
0.405
0.275
0.150
0.035
-0.055
-0.125
-0.160
-0.170
-0.160
-0.135
-0.105
-0.075
-0.055
-0.045
-0.040
-0.050
-0.055
-0.065
-0.070
-0.065
-0.060
-0.050
-0.040
-0.030
-0.030
-0.035
-0.045
-0.050
-0.060
-0.065
-0.065
-0.060
-0.055
-0.045
-0.040
-0.040
-0.040
-0.045
-0.050
-0.055
-0.050
-0.045
-0.035
-0.025
-0.015
-0.010
-0.005
-0.010
-0.015
-0.025
-0.030
-0.030
-0.030
-0.020
-0.010
0.000
0.010
0.015
0.015
0.010
0.005
-0.005
-0.010
-0.010
-0.005
0.010
0.020
0.035
0.045
0.045
0.045
0.045
0.040
0.035
0.030
0.035
0.045
0.055
0.070
0.080
0.090
0.100
0.105
0.110
0.115
0.120
0.125
0.135
0.140
0.150
0.160
0.170
0.180
0.190
0.200
0.210
0.220
0.230
0.235
0.240
0.240
0.235
0.230
0.230
0.230
0.230
0.235
0.245
0.255
0.260
0.260
0.250
0.240
0.225
0.210
0.195
0.185
0.180
0.180
0.180
0.185
0.180
0.175
0.165
0.150
0.130
0.105
0.090
0.075
0.060
0.055
0.050
0.050
0.040
0.030
0.020
0.005
-0.010
-0.025
-0.035
-0.045
-0.050
-0.055
-0.055
-0.055
-0.055
-0.055
-0.055
-0.055
-0.050
-0.050
-0.045
-0.040
-0.035
-0.035
-0.040
-0.045
-0.055
-0.060
-0.070
-0.075
-0.075
-0.075
-0.065
-0.060
-0.050
-0.045
-0.040
-0.040
-0.040
-0.045
-0.045
-0.050
-0.055
-0.060
-0.065
-0.065
-0.070
-0.070
-0.070
-0.070
-0.065
-0.060
-0.050
-0.045
-0.040
-0.035
-0.035
-0.045
-0.050
-0.065
-0.070
-0.080
-0.080
-0.075
-0.065
-0.055
-0.040
-0.030
-0.020
-0.020
-0.020
-0.030
-0.035
-0.040
-0.045
-0.050
-0.045
-0.045
-0.045
-0.045
-0.045
-0.055
-0.060
-0.070
-0.080
-0.080
-0.080
-0.080
-0.070
-0.055
-0.045
-0.030
-0.020
-0.015
-0.015
-0.025
-0.035
-0.050
-0.065
-0.075
-0.085
-0.085
-0.080
-0.070
-0.060
-0.050
-0.045
-0.040
-0.045
-0.055
-0.065
-0.075
-0.080
-0.085
-0.080
-0.075
-0.070
-0.060
-0.050
-0.050
-0.050
-0.055
-0.060
-0.070
-0.075
-0.080
-0.085
-0.080
-0.080
-0.075
-0.065
-0.065
-0.060
-0.060
-0.060
-0.060
-0.065
-0.065
-0.065
-0.065
-0.065
-0.060
-0.060
-0.055
-0.050
-0.050
-0.050
-0.055
-0.060
-0.065
-0.065
-0.070
-0.070
-0.070
-0.075
-0.075
-0.075
-0.080
-0.085
-0.090
-0.095
-0.095
-0.090
-0.085
-0.075
-0.060
-0.050
-0.035
-0.030
-0.025
-0.025
-0.030
-0.030
-0.035
-0.035
-0.035
-0.030
-0.020
-0.010
0.000
0.010
0.015
0.020
0.020
0.015
0.015
0.010
0.000
-0.005
-0.010
-0.015
-0.020
-0.025
-0.030
-0.035
-0.040
-0.050
-0.055
-0.060
-0.065
-0.065
-0.065
-0.070
-0.070
-0.070
-0.070
-0.075
-0.080
-0.085
-0.090
-0.090
-0.095
-0.090
-0.085
-0.080
-0.070
-0.065
-0.060
-0.055
-0.055
-0.060
-0.065
-0.075
-0.080
-0.085
-0.090
-0.095
-0.100
-0.100
-0.100
-0.100
-0.100
-0.100
-0.105
-0.105
-0.105
-0.110
-0.115
-0.120
-0.120
-0.125
-0.120
-0.110
-0.090
-0.055
-0.005
0.060
0.135
0.230
0.325
0.425
0.510
0.585
0.630
0.650
0.635
0.585
0.510
0.410
0.295
0.180
0.070
-0.020
-0.095
-0.145
-0.170
-0.180
-0.170
-0.155
-0.130
-0.105
-0.085
-0.065
-0.050
-0.040
-0.030
-0.030
-0.035
-0.045
-0.055
-0.060
-0.070
-0.075
-0.075
-0.070
-0.065
-0.055
-0.045
-0.035
-0.030
-0.025
-0.025
-0.025
-0.030
-0.035
-0.035
-0.040
-0.040
-0.040
-0.040
-0.040
-0.040
-0.040
-0.040
-0.035
-0.035
-0.030
-0.025
-0.025
-0.020
-0.020
-0.020
-0.020
-0.020
-0.020
-0.020
-0.020
-0.015
-0.010
-0.005
0.000
0.005
0.010
0.015
0.020
0.020
0.025
0.025
0.030
0.030
0.030
0.030
0.035
0.035
0.045
0.050
0.060
0.065
0.075
0.080
0.090
0.090
0.095
0.100
0.105
0.115
0.130
0.140
0.155
0.170
0.180
0.185
0.185
0.180
0.175
0.170
0.170
0.180
0.190
0.205
0.220
0.235
0.245
0.250
0.250
0.245
0.235
0.225
0.215
0.215
0.215
0.215
0.220
0.225
0.225
0.220
0.205
0.190
0.170
0.155
0.140
0.125
0.120
0.115
0.115
0.110
0.105
0.095
0.080
0.060
0.040
0.025
0.010
0.000
-0.010
-0.010
-0.010
-0.005
-0.005
-0.010
-0.015
-0.025
-0.040
-0.050
-0.060
-0.065
-0.070
-0.070
-0.065
-0.060
-0.055
-0.050
-0.045
-0.045
-0.050
-0.055
-0.065
-0.075
-0.085
-0.090
-0.095
-0.095
-0.090
-0.085
-0.075
-0.065
-0.060
-0.055
-0.055
-0.060
-0.065
-0.075
-0.080
-0.080
-0.075
-0.065
-0.055
-0.045
-0.035
-0.030
-0.030
-0.035
-0.045
-0.055
-0.065
-0.070
-0.070
-0.070
-0.060
-0.055
-0.045
-0.040
-0.040
-0.045
-0.050
-0.055
-0.065
-0.065
-0.065
-0.065
-0.060
-0.055
-0.045
-0.045
-0.040
-0.040
-0.045
-0.045
-0.050
-0.050
-0.050
-0.050
-0.050
-0.050
-0.045
-0.045
-0.045
-0.050
-0.050
-0.055
-0.055
-0.060
-0.060
-0.065
-0.060
-0.060
-0.060
-0.055
-0.050
-0.050
-0.045
-0.045
-0.050
-0.050
-0.055
-0.055
-0.060
-0.055
-0.050
-0.045
-0.040
-0.040
-0.040
-0.040
-0.045
-0.050
-0.055
-0.060
-0.060
-0.060
-0.055
-0.045
-0.045
-0.040
-0.045
-0.050
-0.060
-0.070
-0.080
-0.090
-0.090
-0.090
-0.085
-0.080
-0.075
-0.070
-0.065
-0.065
-0.065
-0.065
-0.065
-0.060
-0.060
-0.060
-0.060
-0.060
-0.060
-0.060
-0.060
-0.065
-0.065
-0.070
-0.070
-0.070
-0.070
-0.065
-0.060
-0.055
-0.045
-0.035
-0.030
-0.020
-0.020
-0.020
-0.020
-0.030
-0.035
-0.045
-0.050
-0.050
-0.050
-0.045
-0.030
-0.020
-0.005
0.010
0.020
0.030
0.030
0.030
0.025
0.015
0.005
-0.005
-0.015
-0.025
-0.030
-0.030
-0.035
-0.035
-0.040
-0.045
-0.050
-0.055
-0.060
-0.065
-0.070
-0.075
-0.075
-0.070
-0.070
-0.065
-0.065
-0.065
-0.065
-0.065
-0.070
-0.070
-0.075
-0.075
-0.080
-0.080
-0.080
-0.080
-0.080
-0.080
-0.080
-0.080
-0.080
-0.080
-0.085
-0.085
-0.090
-0.090
-0.090
-0.090
-0.085
-0.085
-0.085
-0.085
-0.090
-0.100
-0.110
-0.120
-0.120
-0.115
-0.095
-0.060
-0.015
0.050
0.120
0.195
0.275
0.355
0.435
0.500
0.560
0.600
0.620
0.615
0.575
0.510
0.420
0.310
0.190
0.075
-0.025
-0.100
-0.145
-0.160
-0.150
-0.120
-0.085
-0.050
-0.025
-0.015
-0.020
-0.030
-0.045
-0.055
-0.065
-0.065
-0.055
-0.040
-0.030
-0.020
-0.015
-0.020
-0.030
-0.045
-0.055
-0.065
-0.065
-0.060
-0.055
-0.045
-0.035
-0.035
-0.035
-0.045
-0.055
-0.065
-0.075
-0.075
-0.070
-0.060
-0.045
-0.025
-0.010
0.005
0.015
0.015
0.010
0.000
-0.010
-0.015
-0.015
-0.015
-0.005
0.005
0.015
0.025
0.025
0.025
0.015
0.010
0.000
0.000
0.005
0.015
0.030
0.045
0.055
0.065
0.070
0.070
0.065
0.055
0.050
0.050
0.055
0.070
0.085
0.100
0.115
0.130
0.135
0.140
0.135
0.135
0.130
0.130
0.135
0.145
0.155
0.170
0.185
0.195
0.205
0.215
0.220
0.220
0.225
0.230
0.235
0.245
0.250
0.255
0.260
0.260
0.260
0.255
0.245
0.240
0.230
0.225
0.220
0.220
0.215
0.210
0.200
0.185
0.170
0.155
0.140
0.120
0.110
0.100
0.090
0.080
0.070
0.060
0.050
0.035
0.020
0.005
-0.005
-0.015
-0.015
-0.010
-0.005
0.000
0.005
0.005
0.000
-0.010
-0.020
-0.035
-0.050
-0.055
-0.060
-0.060
-0.050
-0.040
-0.030
-0.025
-0.020
-0.020
-0.025
-0.035
-0.050
-0.060
-0.070
-0.080
-0.085
-0.085
-0.090
-0.085
-0.085
-0.085
-0.085
-0.080
-0.080
-0.080
-0.075
-0.075
-0.070
-0.070
-0.065
-0.065
-0.060
-0.065
-0.065
-0.070
-0.070
-0.070
-0.070
-0.070
-0.065
-0.060
-0.055
-0.055
-0.055
-0.055
-0.065
-0.070
-0.075
-0.080
-0.080
-0.075
-0.065
-0.055
-0.040
-0.035
-0.030
-0.035
-0.040
-0.045
-0.055
-0.060
-0.060
-0.055
-0.050
-0.045
-0.040
-0.040
-0.045
-0.055
-0.065
-0.075
-0.080
-0.085
-0.080
-0.075
-0.070
-0.065
-0.060
-0.060
-0.065
-0.070
-0.075
-0.080
-0.075
-0.070
-0.065
-0.055
-0.050
-0.050
-0.055
-0.065
-0.075
-0.090
-0.100
-0.105
-0.100
-0.095
-0.080
-0.065
-0.055
-0.050
-0.055
-0.060
-0.075
-0.085
-0.095
-0.100
-0.100
-0.095
-0.080
-0.065
-0.055
-0.045
-0.040
-0.040
-0.045
-0.055
-0.060
-0.065
-0.070
-0.070
-0.065
-0.060
-0.060
-0.055
-0.060
-0.060
-0.065
-0.075
-0.080
-0.085
-0.090
-0.090
-0.090
-0.090
-0.085
-0.080
-0.070
-0.065
-0.060
-0.050
-0.045
-0.035
-0.030
-0.025
-0.020
-0.015
-0.015
-0.015
-0.015
-0.020
-0.025
-0.025
-0.030
-0.035
-0.035
-0.030
-0.025
-0.025
-0.020
-0.020
-0.020
-0.025
-0.035
-0.045
-0.055
-0.065
-0.070
-0.075
-0.075
-0.075
-0.075
-0.070
-0.065
-0.065
-0.065
-0.065
-0.070
-0.075
-0.080
-0.085
-0.090
-0.095
-0.095
-0.095
-0.095
-0.090
-0.090
-0.085
-0.080
-0.080
-0.085
-0.090
-0.095
-0.100
-0.105
-0.105
-0.100
-0.095
-0.085
-0.075
-0.065
-0.055
-0.055
-0.060
-0.070
-0.080
-0.095
-0.110
-0.125
-0.135
-0.135
-0.130
-0.120
-0.095
-0.060
-0.015
0.045
0.120
0.210
0.300
0.395
0.480
0.555
0.605
0.630
0.625
0.590
0.530
0.445
0.345
0.235
0.130
0.040
-0.040
-0.095
-0.130
-0.145
-0.145
-0.130
-0.110
-0.085
-0.060
-0.045
-0.035
-0.030
-0.030
-0.035
-0.045
-0.055
-0.065
-0.075
-0.080
-0.080
-0.080
-0.075
-0.070
-0.060
-0.055
-0.050
-0.045
-0.045
-0.045
-0.045
-0.045
-0.045
-0.040
-0.035
-0.030
-0.025
-0.025
-0.020
-0.020
-0.020
-0.025
-0.025
-0.025
-0.025
-0.025
-0.025
-0.020
-0.015
-0.015
-0.010
-0.010
-0.005
-0.005
0.000
0.005
0.010
0.015
0.020
0.025
0.030
0.030
0.035
0.035
0.035
0.040
0.040
0.045
0.045
0.050
0.055
0.060
0.060
0.065
0.065
0.065
0.065
0.065
0.065
0.070
0.075
0.085
0.100
0.115
0.135
0.160
0.175
0.190
0.200
0.205
0.205
0.200
0.195
0.195
0.195
0.200
0.210
0.220
0.235
0.245
0.255
0.260
0.260
0.255
0.250
0.245
0.240
0.235
0.235
0.230
0.230
0.230
0.230
0.225
0.220
0.220
0.215
0.205
0.195
0.185
0.165
0.150
0.125
0.100
0.080
0.060
0.045
0.035
0.030
0.035
0.035
0.040
0.040
0.035
0.025
0.015
0.000
-0.015
-0.030
-0.040
-0.045
-0.045
-0.045
-0.040
-0.035
-0.035
-0.035
-0.040
-0.045
-0.050
-0.060
-0.065
-0.065
-0.065
-0.065
-0.060
-0.055
-0.050
-0.050
-0.050
-0.055
-0.060
-0.065
-0.075
-0.080
-0.085
-0.085
-0.085
-0.075
-0.070
-0.060
-0.045
-0.035
-0.025
-0.020
-0.020
-0.020
-0.030
-0.040
-0.055
-0.065
-0.075
-0.080
-0.080
-0.075
-0.065
-0.055
-0.045
-0.035
-0.025
-0.025
-0.025
-0.030
-0.040
-0.045
-0.050
-0.055
-0.055
-0.055
-0.050
-0.050
-0.045
-0.040
-0.035
-0.035
-0.035
-0.035
-0.040
-0.050
-0.055
-0.065
-0.075
-0.080
-0.080
-0.080
-0.075
-0.070
-0.060
-0.050
-0.040
-0.035
-0.035
-0.040
-0.045
-0.055
-0.060
-0.070
-0.070
-0.070
-0.070
-0.065
-0.060
-0.055
-0.055
-0.055
-0.060
-0.065
-0.065
-0.070
-0.070
-0.065
-0.065
-0.060
-0.055
-0.050
-0.045
-0.045
-0.045
-0.045
-0.040
-0.040
-0.045
-0.045
-0.045
-0.050
-0.060
-0.065
-0.070
-0.075
-0.080
-0.080
-0.075
-0.065
-0.060
-0.050
-0.045
-0.045
-0.045
-0.050
-0.055
-0.060
-0.070
-0.075
-0.075
-0.080
-0.080
-0.080
-0.080
-0.085
-0.085
-0.090
-0.090
-0.090
-0.090
-0.090
-0.085
-0.080
-0.070
-0.060
-0.050
-0.040
-0.035
-0.025
-0.025
-0.025
-0.030
-0.035
-0.040
-0.045
-0.045
-0.040
-0.030
-0.020
-0.005
0.005
0.015
0.015
0.010
0.000
-0.010
-0.020
-0.030
-0.035
-0.035
-0.035
-0.030
-0.030
-0.035
-0.045
-0.055
-0.070
-0.080
-0.090
-0.090
-0.085
-0.080
-0.070
-0.065
-0.065
-0.070
-0.085
-0.095
-0.105
-0.110
-0.110
-0.100
-0.085
-0.070
-0.055
-0.050
-0.050
-0.055
-0.065
-0.080
-0.090
-0.100
-0.100
-0.095
-0.090
-0.080
-0.075
-0.070
-0.070
-0.075
-0.080
-0.085
-0.095
-0.100
-0.105
-0.110
-0.120
-0.125
-0.125
-0.120
-0.110
-0.080
-0.040
0.015
0.085
0.165
0.255
0.350
0.435
0.510
0.565
0.600
0.605
0.575
0.520
0.440
0.340
0.225
0.110
0.005
-0.080
-0.145
-0.185
-0.200
-0.190
-0.170
-0.140
-0.110
-0.085
-0.070
-0.060
-0.055
-0.055
-0.055
-0.055
-0.055
-0.050
-0.050
-0.045
-0.045
-0.050
-0.050
-0.055
-0.055
-0.055
-0.050
-0.045
-0.040
-0.035
-0.030
-0.025
-0.025
-0.025
-0.025
-0.030
-0.035
-0.035
-0.035
-0.040
-0.040
-0.040
-0.040
-0.035
-0.035
-0.030
-0.025
-0.020
-0.010
0.000
0.005
0.010
0.010
0.005
0.000
-0.005
-0.010
-0.015
-0.020
-0.015
-0.010
0.000
0.010
0.025
0.035
0.040
0.040
0.040
0.035
0.030
0.025
0.020
0.020
0.025
0.035
0.045
0.055
0.065
0.075
0.080
0.080
0.080
0.085
0.085
0.090
0.095
0.105
0.120
0.135
0.150
0.165
0.180
0.190
0.200
0.205
0.205
0.205
0.200
0.200
0.195
0.195
0.200
0.205
0.210
0.215
0.225
0.225
0.230
0.225
0.215
0.200
0.185
0.165
0.150
0.135
0.125
0.120
0.115
0.115
0.120
0.115
0.110
0.100
0.085
0.070
0.045
0.025
0.005
-0.010
-0.020
-0.025
-0.025
-0.020
-0.015
-0.010
-0.005
-0.005
-0.005
-0.005
-0.010
-0.015
-0.025
-0.030
-0.035
-0.040
-0.045
-0.050
-0.055
-0.060
-0.060
-0.060
-0.060
-0.060
-0.060
-0.055
-0.055
-0.050
-0.050
-0.045
-0.045
-0.050
-0.055
-0.060
-0.065
-0.075
-0.080
-0.090
-0.090
-0.090
-0.090
-0.085
-0.080
-0.075
-0.070
-0.060
-0.055
-0.050
-0.045
-0.040
-0.040
-0.040
-0.045
-0.045
-0.050
-0.055
-0.055
-0.055
-0.060
-0.060
-0.060
-0.060
-0.060
-0.060
-0.060
-0.060
-0.055
-0.055
-0.055
-0.050
-0.045
-0.045
-0.040
-0.040
-0.035
-0.040
-0.040
-0.045
-0.045
-0.050
-0.050
-0.045
-0.045
-0.040
-0.035
-0.030
-0.025
-0.025
-0.030
-0.035
-0.040
-0.045
-0.055
-0.060
-0.065
-0.065
-0.065
-0.065
-0.060
-0.060
-0.055
-0.050
-0.050
-0.045
-0.045
-0.040
-0.035
