-0.090
-0.015
0.030
0.060
0.065
0.050
0.015
-0.020
-0.055
-0.070
-0.070
-0.055
-0.025
0.005
0.030
0.040
0.035
0.015
-0.015
-0.045
-0.075
-0.090
-0.095
-0.085
-0.070
-0.050
-0.030
-0.020
-0.020
-0.020
-0.030
-0.035
-0.045
-0.045
-0.040
-0.035
-0.025
-0.020
-0.020
-0.025
-0.035
-0.045
-0.055
-0.060
-0.060
-0.055
-0.045
-0.035
-0.030
-0.025
-0.025
-0.030
-0.035
-0.040
-0.050
-0.050
-0.045
-0.040
-0.035
-0.025
-0.015
-0.010
-0.005
-0.005
-0.005
-0.010
-0.010
-0.010
-0.010
-0.005
0.005
0.015
0.025
0.040
0.050
0.055
0.060
0.065
0.060
0.050
0.040
0.030
0.020
0.010
0.010
0.010
0.015
0.020
0.030
0.035
0.040
0.045
0.045
0.045
0.045
0.050
0.050
0.055
0.055
0.055
0.060
0.060
0.065
0.070
0.080
0.090
0.105
0.120
0.130
0.140
0.145
0.145
0.140
0.135
0.130
0.130
0.135
0.145
0.160
0.175
0.190
0.200
0.205
0.205
0.195
0.185
0.170
0.160
0.150
0.150
0.150
0.155
0.160
0.170
0.175
0.175
0.175
0.175
0.175
0.170
0.165
0.165
0.160
0.150
0.140
0.130
0.115
0.105
0.095
0.085
0.080
0.075
0.075
0.080
0.080
0.080
0.075
0.070
0.065
0.055
0.050
0.040
0.035
0.025
0.020
0.015
0.005
0.000
-0.010
-0.015
-0.020
-0.025
-0.030
-0.030
-0.030
-0.030
-0.020
-0.015
-0.010
-0.005
0.000
0.005
0.005
0.000
-0.005
-0.010
-0.015
-0.020
-0.030
-0.030
-0.030
-0.030
-0.025
-0.020
-0.010
-0.005
0.000
0.000
0.000
-0.005
-0.010
-0.020
-0.030
-0.035
-0.040
-0.045
-0.045
-0.045
-0.040
-0.040
-0.035
-0.035
-0.035
-0.040
-0.045
-0.045
-0.050
-0.050
-0.045
-0.040
-0.030
-0.020
-0.010
-0.005
0.000
-0.005
-0.015
-0.025
-0.035
-0.045
-0.045
-0.045
-0.035
-0.025
-0.015
-0.005
0.000
0.000
-0.005
-0.015
-0.025
-0.030
-0.035
-0.030
-0.025
-0.015
-0.005
0.005
0.010
0.010
0.005
-0.005
-0.015
-0.020
-0.030
-0.030
-0.035
-0.035
-0.035
-0.030
-0.030
-0.030
-0.030
-0.030
-0.030
-0.030
-0.030
-0.030
-0.030
-0.035
-0.040
-0.040
-0.045
-0.045
-0.040
-0.035
-0.030
-0.025
-0.020
-0.015
-0.015
-0.015
-0.015
-0.020
-0.020
-0.020
-0.020
-0.025
-0.030
-0.035
-0.045
-0.055
-0.060
-0.065
-0.065
-0.060
-0.045
-0.030
-0.015
-0.005
0.000
0.000
-0.010
-0.020
-0.035
-0.050
-0.055
-0.060
-0.055
-0.045
-0.035
-0.025
-0.015
-0.015
-0.020
-0.025
-0.035
-0.040
-0.040
-0.040
-0.035
-0.030
-0.025
-0.020
-0.020
-0.025
-0.030
-0.035
-0.045
-0.050
-0.055
-0.055
-0.050
-0.045
-0.045
-0.045
-0.045
-0.050
-0.050
-0.055
-0.055
-0.050
-0.050
-0.045
-0.040
-0.035
-0.035
-0.040
-0.045
-0.050
-0.055
-0.055
-0.055
-0.050
-0.040
-0.030
-0.020
-0.010
-0.010
-0.010
-0.015
-0.025
-0.035
-0.045
-0.055
-0.065
-0.070
-0.070
-0.065
-0.060
-0.055
-0.045
-0.040
-0.030
-0.030
-0.025
-0.030
-0.035
-0.045
-0.050
-0.060
-0.060
-0.060
-0.060
-0.050
-0.040
-0.030
-0.020
-0.015
-0.015
-0.020
-0.030
-0.035
-0.040
-0.040
-0.035
-0.020
-0.005
0.010
0.020
0.025
0.025
0.015
0.000
-0.010
-0.020
-0.025
-0.025
-0.015
0.000
0.015
0.025
0.035
0.040
0.035
0.030
0.020
0.010
0.000
-0.010
-0.015
-0.020
-0.020
-0.025
-0.030
-0.035
-0.040
-0.040
-0.045
-0.045
-0.050
-0.045
-0.045
-0.045
-0.045
-0.045
-0.045
-0.045
-0.050
-0.050
-0.050
-0.050
-0.050
-0.050
-0.050
-0.055
-0.055
-0.060
-0.065
-0.065
-0.060
-0.050
-0.025
0.010
0.065
0.135
0.210
0.295
0.380
0.455
0.510
0.545
0.555
0.535
0.490
0.420
0.340
0.255
0.175
0.105
0.055
0.020
0.000
-0.005
-0.005
0.000
0.005
0.005
0.000
-0.010
-0.020
-0.030
-0.045
-0.055
-0.065
-0.070
-0.080
-0.085
-0.085
-0.085
-0.080
-0.075
-0.065
-0.055
-0.045
-0.035
-0.030
-0.035
-0.040
-0.050
-0.065
-0.075
-0.085
-0.085
-0.085
-0.075
-0.065
-0.055
-0.050
-0.045
-0.045
-0.050
-0.060
-0.065
-0.075
-0.080
-0.080
-0.080
-0.080
-0.080
-0.075
-0.075
-0.075
-0.075
-0.070
-0.070
-0.065
-0.060
-0.055
-0.050
-0.040
-0.040
-0.040
-0.045
-0.050
-0.060
-0.065
-0.075
-0.080
-0.080
-0.075
-0.070
-0.060
-0.050
-0.045
-0.035
-0.030
-0.025
-0.020
-0.020
-0.020
-0.020
-0.025
-0.025
-0.030
-0.035
-0.040
-0.045
-0.045
-0.050
-0.050
-0.050
-0.045
-0.040
-0.040
-0.035
-0.030
-0.020
-0.015
-0.010
-0.005
0.000
0.005
0.005
0.005
0.005
0.005
0.005
0.005
0.010
0.020
0.035
0.050
0.065
0.085
0.100
0.110
0.110
0.110
0.105
0.095
0.085
0.075
0.065
0.060
0.055
0.055
0.060
0.070
0.075
0.090
0.100
0.115
0.125
0.135
0.145
0.145
0.140
0.130
0.115
0.095
0.075
0.055
0.040
0.030
0.025
0.025
0.035
0.040
0.045
0.050
0.045
0.040
0.030
0.015
0.005
-0.005
-0.005
-0.005
0.000
0.005
0.015
0.020
0.015
0.010
-0.005
-0.020
-0.040
-0.060
-0.075
-0.085
-0.090
-0.090
-0.090
-0.085
-0.085
-0.080
-0.080
-0.080
-0.080
-0.075
-0.070
-0.060
-0.050
-0.045
-0.035
-0.035
-0.035
-0.040
-0.045
-0.055
-0.060
-0.060
-0.060
-0.050
-0.040
-0.030
-0.020
-0.015
-0.010
-0.015
-0.020
-0.025
-0.030
-0.035
-0.035
-0.030
-0.025
-0.025
-0.025
-0.030
-0.040
-0.055
-0.065
-0.075
-0.085
-0.085
-0.085
-0.080
-0.070
-0.065
-0.060
-0.060
-0.060
-0.065
-0.070
-0.070
-0.065
-0.055
-0.035
-0.015
0.000
0.020
0.025
0.030
0.020
0.010
-0.005
-0.015
-0.030
-0.035
-0.035
-0.030
-0.025
-0.015
-0.005
0.000
0.005
0.010
0.010
0.010
0.000
-0.005
-0.020
-0.030
-0.045
-0.060
-0.070
-0.075
-0.075
-0.070
-0.060
-0.045
-0.030
-0.015
-0.005
0.000
0.005
0.000
-0.010
-0.015
-0.020
-0.020
-0.020
-0.015
-0.005
0.000
0.005
0.005
0.005
0.000
-0.005
-0.015
-0.015
-0.020
-0.020
-0.015
-0.010
0.000
0.005
0.005
0.005
0.005
0.000
-0.010
-0.015
-0.020
-0.020
-0.015
-0.005
0.000
0.010
0.010
0.010
0.005
0.000
-0.010
-0.020
-0.025
-0.030
-0.025
-0.015
-0.005
0.000
0.005
0.005
0.000
-0.010
-0.020
-0.030
-0.035
-0.040
-0.040
-0.035
-0.025
-0.015
-0.005
0.000
0.005
0.005
0.005
0.005
0.000
0.000
0.000
-0.005
-0.005
-0.005
-0.005
-0.005
0.000
0.010
0.020
0.030
0.040
0.045
0.045
0.035
0.025
0.005
-0.010
-0.025
-0.030
-0.035
-0.030
-0.025
-0.015
-0.010
-0.010
-0.015
-0.025
-0.035
-0.045
-0.050
-0.050
-0.045
-0.035
-0.025
-0.015
-0.005
0.005
0.005
0.005
0.000
0.000
-0.005
-0.010
-0.010
-0.005
-0.005
0.000
0.005
0.010
0.015
0.020
0.025
0.025
0.025
0.020
0.020
0.015
0.010
0.005
0.005
0.000
0.000
-0.005
-0.010
-0.010
-0.015
-0.020
-0.020
-0.020
-0.015
-0.010
-0.005
0.005
0.010
0.015
0.020
0.020
0.025
0.025
0.025
0.030
0.035
0.040
0.045
0.045
0.040
0.035
0.030
0.020
0.005
-0.005
-0.015
-0.020
-0.025
-0.030
-0.030
-0.030
-0.025
-0.025
-0.025
-0.020
-0.020
-0.020
-0.025
-0.025
-0.030
-0.040
-0.045
-0.050
-0.055
-0.055
-0.055
-0.055
-0.050
-0.045
-0.040
-0.030
-0.020
0.000
0.035
0.080
0.140
0.215
0.300
0.385
0.460
0.520
0.560
0.565
0.540
0.495
0.425
0.345
0.260
0.185
0.125
0.080
0.050
0.035
0.025
0.025
0.020
0.015
0.010
0.005
-0.005
-0.010
-0.010
-0.010
-0.005
0.000
0.005
0.005
0.005
0.005
-0.005
-0.010
-0.020
-0.025
-0.030
-0.035
-0.040
-0.040
-0.035
-0.030
-0.025
-0.015
-0.005
0.000
0.010
0.010
0.010
0.005
-0.005
-0.015
-0.025
-0.040
-0.045
-0.045
-0.045
-0.040
-0.030
-0.020
-0.010
0.000
0.005
0.010
0.010
0.010
0.005
0.005
0.005
0.005
0.005
0.005
0.005
0.005
0.000
-0.005
-0.010
-0.015
-0.015
-0.015
-0.015
-0.010
-0.005
0.000
0.010
0.010
0.015
0.015
0.015
0.020
0.020
0.020
0.020
0.015
0.015
0.010
0.005
0.000
-0.005
-0.005
0.000
0.010
0.020
0.035
0.045
0.055
0.060
0.060
0.060
0.055
0.055
0.055
0.060
0.065
0.070
0.080
0.085
0.090
0.090
0.090
0.090
0.085
0.085
0.090
0.090
0.095
0.100
0.105
0.110
0.115
0.120
0.120
0.125
0.130
0.130
0.135
0.140
0.140
0.145
0.145
0.145
0.150
0.150
0.150
0.150
0.150
0.150
0.145
0.145
0.140
0.135
0.130
0.125
0.120
0.115
0.110
0.105
0.100
0.095
0.090
0.085
0.085
0.085
0.080
0.080
0.080
0.075
0.070
0.070
0.060
0.055
0.050
0.040
0.030
0.020
0.015
0.005
-0.005
-0.015
-0.025
-0.030
-0.030
-0.035
-0.035
-0.035
-0.035
-0.035
-0.035
-0.035
-0.035
-0.040
-0.040
-0.035
-0.035
-0.030
-0.025
-0.025
-0.025
-0.025
-0.035
-0.040
-0.050
-0.055
-0.055
-0.055
-0.050
-0.040
-0.030
-0.025
-0.020
-0.020
-0.030
-0.040
-0.055
-0.065
-0.075
-0.080
-0.080
-0.070
-0.060
-0.045
-0.035
-0.025
-0.020
-0.020
-0.025
-0.035
-0.045
-0.055
-0.065
-0.070
-0.070
-0.065
-0.060
-0.050
-0.045
-0.040
-0.040
-0.045
-0.050
-0.055
-0.060
-0.060
-0.060
-0.050
-0.040
-0.030
-0.025
-0.025
-0.030
-0.040
-0.055
-0.075
-0.090
-0.100
-0.105
-0.095
-0.080
-0.060
-0.040
-0.020
-0.015
-0.015
-0.030
-0.050
-0.070
-0.085
-0.095
-0.100
-0.090
-0.080
-0.065
-0.055
-0.050
-0.050
-0.055
-0.060
-0.070
-0.070
-0.070
-0.060
-0.050
-0.040
-0.030
-0.030
-0.035
-0.045
-0.055
-0.065
-0.075
-0.075
-0.070
-0.060
-0.050
-0.045
-0.035
-0.035
-0.040
-0.045
-0.050
-0.055
-0.055
-0.050
-0.045
-0.045
-0.040
-0.045
-0.055
-0.070
-0.090
-0.105
-0.120
-0.125
-0.125
-0.115
-0.100
-0.080
-0.065
-0.050
-0.040
-0.035
-0.040
-0.045
-0.055
-0.065
-0.075
-0.085
-0.090
-0.085
-0.085
-0.075
-0.070
-0.060
-0.055
-0.055
-0.055
-0.055
-0.060
-0.065
-0.070
-0.070
-0.070
-0.065
-0.060
-0.055
-0.050
-0.055
-0.055
-0.065
-0.075
-0.090
-0.100
-0.105
-0.110
-0.105
-0.100
-0.095
-0.085
-0.075
-0.070
-0.065
-0.060
-0.065
-0.065
-0.065
-0.070
-0.070
-0.070
-0.070
-0.070
-0.070
-0.070
-0.065
-0.065
-0.065
-0.065
-0.065
-0.065
-0.065
-0.065
-0.070
-0.070
-0.075
-0.075
-0.070
-0.065
-0.065
-0.060
-0.055
-0.055
-0.055
-0.060
-0.060
-0.065
-0.060
-0.060
-0.055
-0.050
-0.040
-0.035
-0.025
-0.025
-0.020
-0.020
-0.020
-0.020
-0.020
-0.015
-0.010
-0.005
0.000
0.005
0.005
0.005
0.005
0.000
0.000
-0.005
-0.010
-0.020
-0.025
-0.030
-0.040
-0.050
-0.055
-0.065
-0.075
-0.080
-0.085
-0.090
-0.090
-0.085
-0.085
-0.080
-0.075
-0.070
-0.070
-0.070
-0.065
-0.065
-0.060
-0.055
-0.055
-0.050
-0.050
-0.050
-0.055
-0.060
-0.065
-0.070
-0.070
-0.060
-0.040
-0.010
0.035
0.090
0.160
0.230
0.295
0.355
0.400
0.425
0.425
0.395
0.345
0.280
0.200
0.120
0.050
-0.010
-0.050
-0.065
-0.070
-0.060
-0.045
-0.030
-0.025
-0.025
-0.030
-0.040
-0.055
-0.065
-0.070
-0.065
-0.060
-0.050
-0.040
-0.035
-0.030
-0.030
-0.035
-0.040
-0.045
-0.045
-0.040
-0.035
-0.025
-0.020
-0.015
-0.015
-0.025
-0.035
-0.050
-0.065
-0.075
-0.085
-0.085
-0.080
-0.065
-0.050
-0.030
-0.015
0.000
0.010
0.015
0.010
0.005
0.000
-0.010
-0.015
-0.015
-0.015
-0.005
0.005
0.015
0.025
0.030
0.035
0.035
0.025
0.015
0.005
-0.005
-0.010
-0.015
-0.015
-0.010
-0.005
0.000
0.005
0.005
0.005
0.000
-0.005
-0.010
-0.015
-0.010
-0.005
0.005
0.015
0.030
0.040
0.050
0.055
0.055
0.055
0.050
0.045
0.040
0.040
0.040
0.045
0.055
0.065
0.075
0.090
0.100
0.110
0.115
0.115
0.115
0.105
0.100
0.090
0.080
0.075
0.075
0.080
0.090
0.095
0.105
0.110
0.115
0.120
0.120
0.120
0.120
0.125
0.135
0.140
0.150
0.160
0.165
0.170
0.170
0.170
0.170
0.170
0.170
0.170
0.170
0.170
0.165
0.160
0.155
0.150
0.150
0.150
0.155
0.165
0.175
0.185
0.190
0.190
0.185
0.170
0.150
0.130
0.110
0.095
0.085
0.080
0.075
0.075
0.075
0.070
0.065
0.055
0.045
0.030
0.015
0.005
0.000
-0.005
0.000
0.005
0.015
0.020
0.025
0.025
0.015
0.005
-0.010
-0.025
-0.040
-0.055
-0.060
-0.060
-0.055
-0.045
-0.030
-0.015
0.000
0.010
0.015
0.010
0.005
-0.005
-0.015
-0.020
-0.025
-0.025
-0.020
-0.015
-0.010
-0.010
-0.015
-0.020
-0.025
-0.035
-0.040
-0.045
-0.040
-0.035
-0.020
-0.010
0.000
0.000
-0.005
-0.015
-0.035
-0.050
-0.065
-0.075
-0.075
-0.065
-0.045
-0.020
0.005
0.025
0.040
0.040
0.030
0.010
-0.010
-0.030
-0.050
-0.060
-0.060
-0.060
-0.055
-0.050
-0.045
-0.040
-0.040
-0.040
-0.045
-0.040
-0.035
-0.030
-0.020
-0.015
-0.010
-0.010
-0.015
-0.020
-0.030
-0.040
-0.050
-0.050
-0.045
-0.040
-0.030
-0.015
-0.010
0.000
0.000
0.000
-0.005
-0.005
-0.005
-0.005
-0.005
0.000
0.000
0.005
0.005
0.005
0.000
-0.005
-0.005
-0.010
-0.015
-0.020
-0.030
-0.040
-0.050
-0.060
-0.070
-0.075
-0.080
-0.075
-0.070
-0.065
-0.055
-0.045
-0.040
-0.035
-0.035
-0.030
-0.030
-0.030
-0.025
-0.020
-0.010
-0.005
0.005
0.005
0.000
-0.005
-0.010
-0.020
-0.030
-0.035
-0.040
-0.035
-0.035
-0.035
-0.035
-0.035
-0.040
-0.045
-0.050
-0.055
-0.055
-0.050
-0.045
-0.035
-0.025
-0.020
-0.015
-0.015
-0.025
-0.035
-0.045
-0.060
-0.065
-0.070
-0.070
-0.070
-0.060
-0.055
-0.045
-0.040
-0.040
-0.040
-0.045
-0.045
-0.050
-0.050
-0.050
-0.050
-0.050
-0.055
-0.055
-0.065
-0.070
-0.070
-0.070
-0.065
-0.055
-0.040
-0.025
-0.015
-0.005
0.000
0.000
-0.005
-0.020
-0.030
-0.040
-0.050
-0.055
-0.055
-0.055
-0.050
-0.045
-0.040
-0.035
-0.030
-0.025
-0.015
-0.005
0.000
0.010
0.015
0.015
0.015
0.005
-0.005
-0.015
-0.025
-0.035
-0.040
-0.040
-0.035
-0.030
-0.020
-0.015
-0.010
-0.010
-0.015
-0.020
-0.025
-0.030
-0.035
-0.040
-0.040
-0.045
-0.045
-0.040
-0.040
-0.040
-0.040
-0.045
-0.045
-0.050
-0.050
-0.050
-0.055
-0.055
-0.055
-0.055
-0.050
-0.050
-0.050
-0.050
-0.055
-0.065
-0.075
-0.085
-0.095
-0.105
-0.105
-0.095
-0.070
-0.025
0.035
0.115
0.200
0.295
0.380
0.455
0.505
0.525
0.515
0.480
0.420
0.345
0.260
0.180
0.105
0.045
0.005
-0.025
-0.040
-0.040
-0.040
-0.035
-0.030
-0.025
-0.025
-0.025
-0.030
-0.035
-0.045
-0.055
-0.070
-0.080
-0.085
-0.090
-0.090
-0.090
-0.080
-0.075
-0.065
-0.060
-0.060
-0.060
-0.065
-0.070
-0.070
-0.075
-0.075
-0.070
-0.065
-0.065
-0.060
-0.060
-0.065
-0.075
-0.080
-0.085
-0.085
-0.085
-0.075
-0.060
-0.045
-0.035
-0.025
-0.020
-0.025
-0.035
-0.050
-0.065
-0.075
-0.080
-0.080
-0.075
-0.065
-0.050
-0.040
-0.030
-0.025
-0.025
-0.025
-0.025
-0.030
-0.025
-0.025
-0.020
-0.015
-0.010
-0.005
-0.005
-0.010
-0.015
-0.020
-0.025
-0.030
-0.030
-0.025
-0.020
-0.020
-0.015
-0.010
-0.010
-0.010
-0.005
-0.005
0.005
0.015
0.025
0.040
0.050
0.060
0.060
0.060
0.050
0.040
0.025
0.015
0.010
0.010
0.020
0.035
0.050
0.070
0.085
0.100
0.110
0.110
0.110
0.105
0.100
0.090
0.090
0.085
0.090
0.095
0.100
0.110
0.115
0.125
0.130
0.135
0.135
0.140
0.145
0.145
0.150
0.150
0.155
0.155
0.155
0.155
0.150
0.145
0.140
0.130
0.125
0.125
0.125
0.125
0.130
0.130
0.135
0.135
0.130
0.125
0.115
0.100
0.085
0.070
0.055
0.045
0.035
0.030
0.025
0.020
0.015
0.010
0.010
0.005
0.000
0.000
-0.005
-0.005
-0.010
-0.010
-0.015
-0.020
-0.030
-0.035
-0.045
-0.055
-0.060
-0.060
-0.060
-0.055
-0.045
-0.040
-0.030
-0.030
-0.030
-0.030
-0.035
-0.045
-0.050
-0.055
-0.055
-0.055
-0.050
-0.045
-0.040
-0.035
-0.030
-0.030
-0.030
-0.030
-0.030
-0.030
-0.030
-0.030
-0.025
-0.030
-0.030
-0.035
-0.040
-0.045
-0.045
-0.045
-0.040
-0.035
-0.030
-0.030
-0.035
-0.040
-0.050
-0.065
-0.070
-0.075
-0.075
-0.070
-0.055
-0.040
-0.020
-0.010
0.000
0.000
-0.005
-0.015
-0.020
-0.030
-0.030
-0.035
-0.035
-0.030
-0.035
-0.035
-0.040
-0.045
-0.050
-0.050
-0.050
-0.045
-0.035
-0.025
-0.015
-0.010
-0.005
-0.010
-0.020
-0.030
-0.040
-0.050
-0.060
-0.065
-0.070
-0.070
-0.070
-0.065
-0.060
-0.050
-0.040
-0.025
-0.010
0.005
0.010
0.010
0.005
-0.010
-0.030
-0.050
-0.065
-0.075
-0.080
-0.075
-0.060
-0.045
-0.025
-0.010
-0.005
-0.005
-0.010
-0.025
-0.040
-0.050
-0.060
-0.065
-0.060
-0.055
-0.045
-0.035
-0.025
-0.020
-0.020
-0.020
-0.025
-0.030
-0.035
-0.035
-0.035
-0.035
-0.030
-0.025
-0.025
-0.020
-0.020
-0.020
-0.025
-0.030
-0.030
-0.030
-0.030
-0.025
-0.020
-0.015
-0.015
-0.015
-0.025
-0.035
-0.050
-0.065
-0.080
-0.090
-0.090
-0.085
-0.075
-0.060
-0.045
-0.030
-0.025
-0.020
-0.025
-0.035
-0.050
-0.065
-0.070
-0.075
-0.070
-0.055
-0.040
-0.025
-0.015
-0.005
-0.005
-0.015
-0.020
-0.025
-0.030
-0.025
-0.015
0.005
0.020
0.035
0.045
0.045
0.035
0.020
0.000
-0.020
-0.030
-0.035
-0.035
-0.025
-0.010
0.005
0.015
0.025
0.030
0.025
0.020
0.010
0.000
-0.010
-0.025
-0.040
-0.055
-0.075
-0.090
-0.100
-0.110
-0.110
-0.100
-0.090
-0.075
-0.055
-0.040
-0.025
-0.020
-0.020
-0.025
-0.035
-0.045
-0.055
-0.065
-0.075
-0.080
-0.080
-0.080
-0.075
-0.060
-0.040
-0.010
0.030
0.085
0.145
0.210
0.275
0.335
0.390
0.430
0.450
0.450
0.425
0.375
0.305
0.220
0.135
0.050
-0.020
-0.070
-0.100
-0.100
-0.085
-0.060
-0.030
-0.005
0.010
0.010
0.000
-0.025
-0.050
-0.070
-0.085
-0.090
-0.085
-0.070
-0.055
-0.035
-0.025
-0.020
-0.025
-0.030
-0.035
-0.045
-0.045
-0.050
-0.045
-0.045
-0.040
-0.040
-0.040
-0.040
-0.040
-0.040
-0.035
-0.030
-0.025
-0.025
-0.025
-0.030
-0.040
-0.050
-0.060
-0.070
-0.075
-0.075
-0.065
-0.055
-0.040
-0.030
-0.025
-0.025
-0.030
-0.035
-0.045
-0.045
-0.045
-0.040
-0.025
-0.010
0.000
0.010
0.015
0.015
0.010
0.010
0.005
0.005
0.005
0.010
0.010
0.010
0.005
-0.005
-0.020
-0.035
-0.040
-0.045
-0.040
-0.030
-0.010
0.010
0.025
0.040
0.040
0.035
0.025
0.015
0.010
0.005
0.010
0.020
0.035
0.050
0.060
0.070
0.070
0.065
0.060
0.050
0.045
0.045
0.050
0.060
0.070
0.085
0.095
0.105
0.110
0.110
0.110
0.110
0.105
0.105
0.110
0.120
0.125
0.135
0.145
0.155
0.160
0.165
0.165
0.165
0.160
0.160
0.160
0.160
0.160
0.155
0.155
0.150
0.145
0.135
0.125
0.120
0.110
0.110
0.110
0.115
0.120
0.125
0.130
0.130
0.130
0.125
0.115
0.100
0.090
0.080
0.070
0.060
0.055
0.055
0.055
0.055
0.055
0.050
0.045
0.035
0.020
0.005
-0.015
-0.035
-0.045
-0.060
-0.065
-0.065
-0.060
-0.055
-0.050
-0.045
-0.040
-0.040
-0.045
-0.050
-0.055
-0.055
-0.060
-0.060
-0.060
-0.055
-0.055
-0.050
-0.045
-0.040
-0.040
-0.035
-0.030
-0.030
-0.030
-0.035
-0.040
-0.050
-0.060
-0.070
-0.070
-0.070
-0.055
-0.040
-0.020
0.005
0.020
0.035
0.035
0.030
0.015
-0.005
-0.025
-0.045
-0.060
-0.065
-0.065
-0.060
-0.050
-0.040
-0.030
-0.025
-0.020
-0.025
-0.035
-0.045
-0.060
-0.065
-0.070
-0.065
-0.055
-0.040
-0.025
-0.005
0.010
0.015
0.015
0.010
-0.005
-0.020
-0.035
-0.050
-0.055
-0.060
-0.060
-0.055
-0.050
-0.045
-0.040
-0.035
-0.030
-0.025
-0.020
-0.010
-0.005
0.000
0.000
-0.005
-0.010
-0.020
-0.030
-0.040
-0.050
-0.050
-0.050
-0.045
-0.035
-0.025
-0.015
-0.005
-0.005
-0.005
-0.010
-0.015
-0.020
-0.030
-0.035
-0.040
-0.040
-0.040
-0.040
-0.045
-0.045
-0.050
-0.055
-0.060
-0.060
-0.065
-0.060
-0.055
-0.045
-0.035
-0.020
-0.005
0.010
0.020
0.030
0.030
0.030
0.030
0.025
0.025
0.025
0.030
0.040
0.045
0.050
0.050
0.040
0.030
0.010
-0.010
-0.030
-0.050
-0.060
-0.065
-0.065
-0.060
-0.050
-0.040
-0.035
-0.030
-0.035
-0.035
-0.040
-0.045
-0.050
-0.050
-0.045
-0.040
-0.030
-0.025
-0.020
-0.020
-0.020
-0.020
-0.025
-0.030
-0.040
-0.045
-0.055
-0.065
-0.075
-0.080
-0.080
-0.070
-0.045
-0.005
0.050
0.120
0.200
0.280
0.355
0.415
0.450
0.460
0.440
0.395
0.335
0.260
0.180
0.105
0.045
0.000
-0.030
-0.045
-0.045
-0.040
-0.030
-0.015
-0.010
-0.005
-0.005
-0.005
-0.015
-0.025
-0.035
-0.045
-0.050
-0.055
-0.055
-0.050
-0.050
-0.045
-0.040
-0.040
-0.040
-0.040
-0.045
-0.045
-0.050
-0.050
-0.045
-0.040
-0.030
-0.020
-0.005
0.005
0.015
0.025
0.025
0.025
0.020
0.015
0.005
-0.005
-0.015
-0.025
-0.030
-0.030
-0.035
-0.030
-0.030
-0.030
-0.030
-0.035
-0.035
-0.040
-0.045
-0.050
-0.050
-0.050
-0.045
-0.035
-0.030
-0.020
-0.010
-0.005
0.000
0.000
-0.005
-0.010
-0.015
-0.025
-0.030
-0.030
-0.030
-0.025
-0.020
-0.015
-0.005
0.000
0.005
0.005
0.000
0.000
-0.005
-0.010
-0.010
-0.010
-0.010
0.000
0.015
0.030
0.045
0.060
0.075
0.090
0.095
0.100
0.100
0.090
0.085
0.075
0.065
0.060
0.055
0.055
0.060
0.065
0.070
0.080
0.085
0.090
0.090
0.085
0.085
0.080
0.075
0.075
0.075
0.075
0.080
0.085
0.090
0.105
0.115
0.130
0.145
0.160
0.175
0.185
0.190
0.190
0.180
0.170
0.155
0.140
0.125
0.110
0.105
0.105
0.105
0.110
0.115
0.115
0.110
0.100
0.085
0.065
0.050
0.035
0.025
0.020
0.020
0.025
0.030
0.035
0.035
0.030
0.020
0.005
-0.010
-0.025
-0.040
-0.050
-0.060
-0.060
-0.060
-0.060
-0.055
-0.055
-0.050
-0.045
-0.045
-0.040
-0.040
-0.040
-0.040
-0.045
-0.050
-0.055
-0.065
-0.070
-0.075
-0.080
-0.080
-0.080
-0.075
-0.070
-0.070
-0.065
-0.060
-0.060
-0.060
-0.065
-0.065
-0.065
-0.060
-0.055
-0.050
-0.045
-0.035
-0.030
-0.030
-0.030
-0.035
-0.040
-0.045
-0.050
-0.050
-0.050
-0.050
-0.045
-0.045
-0.040
-0.040
-0.040
-0.040
-0.040
-0.040
-0.040
-0.040
-0.040
-0.040
-0.040
-0.045
-0.055
-0.060
-0.070
-0.075
-0.075
-0.075
-0.070
-0.065
-0.055
-0.050
-0.050
-0.045
-0.050
-0.055
-0.060
-0.065
-0.070
-0.070
-0.065
-0.060
-0.055
-0.050
-0.040
-0.040
-0.035
-0.035
-0.035
-0.040
-0.040
-0.040
-0.040
-0.040
-0.035
-0.030
-0.030
-0.030
-0.035
-0.040
-0.050
-0.065
-0.075
-0.085
-0.090
-0.090
-0.085
-0.080
-0.070
-0.065
-0.060
-0.055
-0.060
-0.065
-0.075
-0.085
-0.095
-0.100
-0.100
-0.095
-0.080
-0.065
-0.050
-0.035
-0.020
-0.015
-0.015
-0.015
-0.020
-0.030
-0.035
-0.035
-0.035
-0.030
-0.025
-0.015
-0.005
0.000
0.005
0.010
0.010
0.010
0.015
0.015
0.020
0.025
0.025
0.025
0.025
0.020
0.010
0.000
-0.015
-0.025
-0.035
-0.045
-0.050
-0.055
-0.060
-0.065
-0.070
-0.080
-0.080
-0.085
-0.080
-0.070
-0.060
-0.045
-0.030
-0.025
-0.020
-0.025
-0.035
-0.050
-0.065
-0.075
-0.080
-0.085
-0.080
-0.075
-0.065
-0.055
-0.050
-0.045
-0.035
-0.015
0.015
0.060
0.115
0.190
0.265
0.345
0.410
0.460
0.485
0.485
0.460
0.415
0.350
0.280
0.210
0.150
0.100
0.060
0.035
0.020
0.010
0.000
-0.005
-0.020
-0.035
-0.055
-0.075
-0.090
-0.100
-0.105
-0.105
-0.095
-0.080
-0.065
-0.055
-0.045
-0.040
-0.040
-0.045
-0.060
-0.070
-0.080
-0.085
-0.090
-0.085
-0.080
-0.070
-0.055
-0.045
-0.035
-0.025
-0.020
-0.020
-0.020
-0.025
-0.030
-0.040
-0.050
-0.055
-0.065
-0.075
-0.075
-0.080
-0.080
-0.080
-0.080
-0.080
-0.085
-0.085
-0.090
-0.090
-0.095
-0.095
-0.095
-0.090
-0.080
-0.075
-0.070
-0.065
-0.060
-0.060
-0.060
-0.060
-0.060
-0.060
-0.055
-0.055
-0.055
-0.050
-0.050
-0.050
-0.055
-0.055
-0.055
-0.055
-0.050
-0.045
-0.035
-0.025
-0.015
0.000
0.010
0.015
0.020
0.020
0.020
0.015
0.005
0.000
-0.005
-0.015
-0.020
-0.025
-0.030
-0.030
-0.030
-0.025
-0.015
-0.010
0.000
0.010
0.020
0.025
0.035
0.040
0.040
0.045
0.045
0.050
0.050
0.050
0.050
0.055
0.060
0.070
0.080
0.090
0.105
0.115
0.125
0.135
0.135
0.135
0.130
0.120
0.115
0.110
0.105
0.105
0.105
0.105
0.105
0.105
0.105
0.100
0.095
0.095
0.090
0.090
0.090
0.085
0.080
0.075
0.060
0.045
0.030
0.015
0.000
-0.005
-0.005
0.000
0.005
0.015
0.015
0.015
0.005
-0.005
-0.015
-0.030
-0.035
-0.035
-0.030
-0.025
-0.020
-0.020
-0.030
-0.040
-0.060
-0.080
-0.095
-0.105
-0.105
-0.095
-0.080
-0.060
-0.035
-0.025
-0.015
-0.020
-0.030
-0.050
-0.060
-0.070
-0.075
-0.070
-0.055
-0.035
-0.015
0.005
0.015
0.020
0.015
0.005
-0.010
-0.025
-0.045
-0.055
-0.070
-0.075
-0.080
-0.080
-0.075
-0.075
-0.070
-0.065
-0.065
-0.060
-0.060
-0.060
-0.060
-0.060
-0.055
-0.055
-0.050
-0.045
-0.035
-0.030
-0.025
-0.020
-0.015
-0.015
-0.020
-0.020
-0.025
-0.030
-0.035
-0.040
-0.040
-0.040
-0.035
-0.030
-0.030
-0.030
-0.030
-0.030
-0.035
-0.040
-0.045
-0.045
-0.045
-0.040
-0.035
-0.030
-0.025
-0.020
-0.015
-0.010
-0.010
-0.010
-0.010
-0.010
-0.015
-0.025
-0.040
-0.055
-0.070
-0.080
-0.090
-0.090
-0.085
-0.070
-0.045
-0.020
0.010
0.030
0.045
0.045
0.040
0.020
-0.005
-0.030
-0.055
-0.070
-0.075
-0.070
-0.060
-0.045
-0.030
-0.020
-0.010
-0.010
-0.015
-0.020
-0.030
-0.035
-0.040
-0.040
-0.040
-0.040
-0.035
-0.035
-0.030
-0.030
-0.030
-0.030
-0.025
-0.025
-0.020
-0.020
-0.020
-0.025
-0.025
-0.025
-0.025
-0.020
-0.010
0.005
0.025
0.040
0.055
0.065
0.065
0.060
0.055
0.040
0.030
0.020
0.015
0.015
0.020
0.025
0.025
0.025
0.020
0.010
0.000
-0.015
-0.025
-0.030
-0.030
-0.025
-0.015
-0.005
0.000
0.005
0.000
-0.005
-0.015
-0.025
-0.035
-0.045
-0.050
-0.050
-0.050
-0.045
-0.040
-0.040
-0.035
-0.035
-0.040
-0.045
-0.050
-0.055
-0.060
-0.060
-0.055
-0.040
-0.015
0.025
0.080
0.145
0.225
0.305
0.390
0.465
0.520
0.555
0.560
0.540
0.490
0.420
0.335
0.250
0.170
0.105
0.060
0.035
0.025
0.030
0.035
0.040
0.040
0.035
0.020
-0.005
-0.025
-0.040
-0.050
-0.050
-0.040
-0.025
-0.010
0.000
0.000
-0.005
-0.015
-0.035
-0.050
-0.065
-0.070
-0.070
-0.065
-0.055
-0.045
-0.035
-0.030
-0.025
-0.025
-0.030
-0.030
-0.025
-0.020
-0.010
-0.005
0.000
0.000
-0.005
-0.010
-0.020
-0.030
-0.035
-0.035
-0.030
-0.020
-0.010
0.000
0.010
0.010
0.005
-0.005
-0.020
-0.030
-0.035
-0.040
-0.035
-0.025
-0.010
0.000
0.010
0.010
0.010
0.005
-0.005
-0.020
-0.030
-0.035
-0.040
-0.040
-0.040
-0.030
-0.025
-0.015
0.000
0.010
0.025
0.035
0.045
0.055
0.060
0.060
0.060
0.050
0.040
0.030
0.025
0.015
0.015
0.020
0.030
0.040
0.050
0.065
0.070
0.075
0.080
0.075
0.075
0.070
0.070
0.075
0.085
0.095
0.105
0.120
0.130
0.135
0.135
0.130
0.115
0.100
0.085
0.070
0.060
0.060
0.065
0.075
0.095
0.115
0.135
0.155
0.165
0.175
0.175
0.175
0.170
0.160
0.155
0.150
0.145
0.145
0.145
0.145
0.145
0.140
0.140
0.135
0.130
0.120
0.105
0.090
0.075
0.060
0.045
0.040
0.035
0.035
0.040
0.045
0.050
0.050
0.045
0.040
0.030
0.025
0.015
0.010
0.005
0.005
0.005
0.005
0.005
0.000
0.000
-0.005
-0.005
-0.005
0.000
0.000
0.005
0.005
0.005
0.000
-0.005
-0.010
-0.020
-0.030
-0.035
-0.040
-0.045
-0.045
-0.050
-0.050
-0.055
-0.055
-0.055
-0.055
-0.050
-0.045
-0.035
-0.030
-0.025
-0.020
-0.020
-0.020
-0.020
-0.015
-0.015
-0.010
-0.005
0.000
0.005
0.005
0.000
-0.005
-0.010
-0.015
-0.020
-0.015
-0.010
0.000
0.005
0.010
0.010
0.005
-0.005
-0.020
-0.035
-0.050
-0.060
-0.060
-0.055
-0.050
-0.035
-0.025
-0.015
-0.015
-0.015
-0.020
-0.030
-0.035
-0.040
-0.040
-0.035
-0.030
-0.025
-0.020
-0.015
-0.015
-0.020
-0.025
-0.035
-0.040
-0.040
-0.040
-0.040
-0.030
-0.025
-0.020
-0.015
-0.015
-0.020
-0.025
-0.030
-0.040
-0.045
-0.045
-0.050
-0.050
-0.045
-0.045
-0.045
-0.050
-0.050
-0.055
-0.060
-0.065
-0.065
-0.060
-0.060
-0.055
-0.045
-0.040
-0.035
-0.035
-0.035
-0.040
-0.045
-0.050
-0.055
-0.055
-0.055
-0.050
-0.045
-0.035
-0.030
-0.030
-0.030
-0.035
-0.045
-0.055
-0.070
-0.075
-0.080
-0.075
-0.065
-0.055
-0.045
-0.035
-0.030
-0.035
-0.040
-0.055
-0.065
-0.075
-0.085
-0.085
-0.085
-0.075
-0.060
-0.045
-0.030
-0.020
-0.010
-0.005
-0.010
-0.020
-0.030
-0.045
-0.065
-0.080
-0.090
-0.100
-0.100
-0.095
-0.080
-0.065
-0.050
-0.035
-0.030
-0.030
-0.035
-0.045
-0.060
-0.070
-0.085
-0.090
-0.090
-0.090
-0.080
-0.070
-0.065
-0.055
-0.055
-0.055
-0.050
-0.050
-0.050
-0.045
-0.040
-0.035
-0.035
-0.035
-0.040
-0.045
-0.055
-0.065
-0.070
-0.070
-0.065
-0.055
-0.040
-0.025
-0.015
-0.010
-0.010
-0.020
-0.030
-0.040
-0.050
-0.055
-0.050
-0.045
-0.035
-0.025
-0.015
-0.005
-0.005
-0.005
-0.005
-0.010
-0.010
-0.005
0.005
0.015
0.030
0.045
0.055
0.055
0.055
0.045
0.025
0.005
-0.020
-0.040
-0.060
-0.075
-0.085
-0.085
-0.080
-0.075
-0.065
-0.060
-0.050
-0.045
-0.045
-0.045
-0.050
-0.050
-0.055
-0.055
-0.055
-0.055
-0.055
-0.050
-0.050
-0.050
-0.050
-0.055
-0.055
-0.065
-0.070
-0.075
-0.080
-0.080
-0.070
-0.055
-0.025
0.020
0.075
0.140
0.215
0.290
0.360
0.420
0.460
0.480
0.475
0.445
0.400
0.335
0.260
0.185
0.115
0.055
0.010
-0.020
-0.040
-0.045
-0.045
-0.040
-0.030
-0.025
-0.020
-0.020
-0.020
-0.030
-0.035
-0.040
-0.045
-0.050
-0.050
-0.045
-0.040
-0.030
-0.025
-0.015
-0.015
-0.015
-0.025
-0.030
-0.045
-0.055
-0.065
-0.065
-0.065
-0.060
-0.050
-0.040
-0.030
-0.020
-0.015
-0.015
-0.020
-0.030
-0.035
-0.045
-0.050
-0.055
-0.060
-0.060
-0.060
-0.055
-0.055
-0.050
-0.045
-0.040
-0.030
-0.020
-0.015
-0.005
-0.005
-0.005
-0.010
-0.015
-0.025
-0.035
-0.040
-0.045
-0.040
-0.035
-0.020
-0.010
0.005
0.010
0.015
0.015
0.010
0.005
0.000
-0.005
-0.010
-0.010
-0.005
-0.005
-0.005
-0.005
-0.005
-0.010
-0.010
-0.005
0.000
0.010
0.025
0.040
0.050
0.055
0.050
0.045
0.030
0.015
0.000
-0.005
-0.005
0.000
0.015
0.030
0.045
0.055
0.060
0.060
0.060
0.055
0.055
0.060
0.065
0.075
0.085
0.095
0.105
0.115
0.120
0.125
0.125
0.125
0.125
0.120
0.115
0.110
0.105
0.095
0.090
0.095
0.100
0.110
0.125
0.135
0.150
0.160
0.160
0.155
0.140
0.125
0.105
0.090
0.075
0.065
0.065
0.065
0.070
0.070
0.070
0.065
0.060
0.050
0.040
0.030
0.020
0.010
0.005
0.000
0.000
0.000
0.000
0.000
0.005
0.010
0.015
0.020
0.025
0.025
0.025
0.020
0.005
-0.010
-0.025
-0.040
-0.050
-0.055
-0.060
-0.055
-0.045
-0.035
-0.025
-0.015
-0.010
-0.010
-0.010
-0.020
-0.030
-0.035
-0.045
-0.050
-0.050
-0.050
-0.050
-0.050
-0.050
-0.050
-0.050
-0.050
-0.050
-0.050
-0.045
-0.045
-0.040
-0.035
-0.035
-0.030
-0.035
-0.035
-0.035
-0.035
-0.030
-0.025
-0.020
-0.015
-0.010
-0.010
-0.010
-0.015
-0.020
-0.025
-0.025
-0.030
-0.030
-0.030
-0.030
-0.035
-0.035
-0.040
-0.045
-0.045
-0.050
-0.045
-0.040
-0.030
-0.025
-0.020
-0.020
-0.025
-0.030
-0.040
-0.055
-0.065
-0.070
-0.070
-0.065
-0.055
-0.045
-0.035
-0.025
-0.015
-0.015
-0.015
-0.020
-0.025
-0.030
-0.030
-0.030
-0.030
-0.025
-0.020
-0.015
-0.015
-0.015
-0.020
-0.030
-0.035
-0.045
-0.045
-0.050
-0.050
-0.045
-0.045
-0.040
-0.040
-0.040
-0.040
-0.040
-0.045
-0.045
-0.045
-0.040
-0.035
-0.030
-0.025
-0.025
-0.025
-0.025
-0.030
-0.035
-0.040
-0.045
-0.045
-0.045
-0.045
-0.040
-0.040
-0.040
-0.040
-0.045
-0.050
-0.050
-0.055
-0.055
-0.055
-0.055
-0.050
-0.045
-0.045
-0.040
-0.040
-0.040
-0.045
-0.045
-0.050
-0.050
-0.050
-0.055
-0.050
-0.050
-0.045
-0.040
-0.030
-0.025
-0.020
-0.020
-0.020
-0.025
-0.030
-0.035
-0.035
-0.030
-0.020
-0.010
0.000
0.015
0.020
0.025
0.025
0.015
0.010
0.000
-0.005
-0.005
0.000
0.010
0.020
0.025
0.030
0.030
0.025
0.015
0.000
-0.015
-0.030
-0.040
-0.045
-0.050
-0.045
-0.045
-0.040
-0.040
-0.040
-0.045
-0.050
-0.055
-0.060
-0.060
-0.060
-0.060
-0.055
-0.050
-0.040
-0.035
-0.035
-0.030
-0.035
-0.040
-0.045
-0.050
-0.055
-0.060
-0.060
-0.055
-0.045
-0.025
0.005
0.040
0.085
0.135
0.195
0.255
0.315
0.365
0.405
0.425
0.420
0.395
0.350
0.290
0.215
0.145
0.080
0.025
-0.015
-0.040
-0.050
-0.050
-0.045
-0.035
-0.030
-0.030
-0.030
-0.035
-0.040
-0.045
-0.045
-0.045
-0.035
-0.025
-0.010
0.000
0.005
0.005
0.000
-0.005
-0.020
-0.035
-0.045
-0.055
-0.060
-0.060
-0.055
-0.050
-0.045
-0.040
-0.040
-0.035
-0.040
-0.040
-0.045
-0.050
-0.050
-0.050
-0.050
-0.045
-0.040
-0.035
-0.030
-0.025
-0.020
-0.015
-0.015
-0.015
-0.015
-0.015
-0.020
-0.020
-0.030
-0.035
-0.040
-0.040
-0.040
-0.035
-0.030
-0.020
-0.005
0.005
0.015
0.020
0.025
0.025
0.020
0.010
0.000
-0.010
-0.020
-0.030
-0.035
-0.035
-0.030
-0.025
-0.015
0.000
0.010
0.025
0.035
0.045
0.050
0.050
0.050
0.045
0.035
0.030
0.020
0.015
0.005
0.005
0.000
0.000
0.005
0.005
0.015
0.020
0.030
0.045
0.055
0.065
0.070
0.080
0.085
0.090
0.100
0.105
0.110
0.115
0.120
0.120
0.120
0.115
0.110
0.105
0.105
0.105
0.110
0.120
0.140
0.155
0.170
0.180
0.185
0.180
0.170
0.155
0.135
0.115
0.105
0.095
0.095
0.100
0.105
0.110
0.115
0.115
0.110
0.105
0.095
0.090
0.085
0.080
0.080
0.075
0.070
0.065
0.055
0.045
0.030
0.020
0.010
0.005
0.000
-0.005
-0.005
-0.010
-0.020
-0.030
-0.040
-0.045
-0.045
-0.045
-0.035
-0.025
-0.015
-0.005
-0.005
-0.005
-0.010
-0.020
-0.030
-0.040
-0.050
-0.055
-0.055
-0.060
-0.060
-0.060
-0.060
-0.065
-0.065
-0.065
-0.060
-0.055
-0.050
-0.040
-0.035
-0.030
-0.030
-0.035
-0.040
-0.045
-0.045
-0.045
-0.045
-0.040
-0.040
-0.045
-0.045
-0.055
-0.060
-0.065
-0.070
-0.065
-0.055
-0.040
-0.025
-0.010
0.000
0.005
0.000
-0.005
-0.015
-0.030
-0.040
-0.050
-0.060
-0.065
-0.070
-0.070
-0.065
-0.060
-0.050
-0.040
-0.025
-0.010
0.005
0.015
0.025
0.030
0.030
0.025
0.015
0.000
-0.010
-0.020
-0.030
-0.040
-0.055
-0.065
-0.075
-0.090
-0.100
-0.105
-0.110
-0.100
-0.085
-0.065
-0.035
-0.010
0.015
0.030
0.035
0.025
0.010
-0.020
-0.045
-0.075
-0.090
-0.100
-0.095
-0.080
-0.060
-0.040
-0.020
-0.005
0.005
0.000
-0.010
-0.020
-0.035
-0.045
-0.050
-0.055
-0.050
-0.045
-0.045
-0.040
-0.040
-0.045
-0.055
-0.060
-0.070
-0.075
-0.075
-0.075
-0.065
-0.055
-0.045
-0.035
-0.030
-0.030
-0.030
-0.040
-0.050
-0.060
-0.070
-0.075
-0.075
-0.070
-0.060
-0.045
-0.030
-0.020
-0.015
-0.015
-0.020
-0.030
-0.045
-0.055
-0.060
-0.060
-0.055
-0.045
-0.040
-0.030
-0.025
-0.025
-0.025
-0.030
-0.030
-0.030
-0.030
-0.025
-0.020
-0.015
-0.015
-0.020
-0.030
-0.040
-0.050
-0.055
-0.060
-0.055
-0.050
-0.035
-0.025
-0.010
0.000
0.005
0.010
0.010
0.010
0.010
0.005
0.005
0.005
0.005
0.005
0.005
0.005
0.005
0.005
0.005
0.005
0.005
0.000
-0.005
-0.015
-0.020
-0.030
-0.035
-0.035
-0.035
-0.035
-0.030
-0.025
-0.025
-0.025
-0.025
-0.025
-0.025
-0.025
-0.025
-0.020
-0.015
-0.010
-0.010
-0.010
-0.020
-0.035
-0.050
-0.065
-0.075
-0.080
-0.080
-0.070
-0.060
-0.050
-0.050
-0.050
-0.060
-0.070
-0.080
-0.075
-0.050
-0.005
0.065
0.160
0.265
0.365
0.460
0.525
0.555
0.555
0.520
0.460
0.390
0.310
0.235
0.175
0.130
0.095
0.070
0.045
0.030
0.010
-0.010
-0.030
-0.040
-0.045
-0.045
-0.040
-0.030
-0.020
-0.015
-0.015
-0.020
-0.030
-0.045
-0.055
-0.065
-0.070
-0.070
-0.070
-0.060
-0.055
-0.045
-0.040
-0.035
-0.025
-0.020
-0.015
-0.010
-0.005
-0.005
-0.010
-0.020
-0.030
-0.045
-0.060
-0.065
-0.070
-0.070
-0.060
-0.045
-0.030
-0.015
0.000
0.010
0.015
0.010
0.005
-0.005
-0.015
-0.030
-0.040
-0.050
-0.055
-0.055
-0.055
-0.050
-0.045
-0.040
-0.035
-0.030
-0.030
-0.025
-0.025
-0.020
-0.015
-0.005
0.005
0.015
0.020
0.025
0.020
0.010
-0.005
-0.020
-0.030
-0.035
-0.035
-0.035
-0.025
-0.015
0.000
0.005
0.010
0.010
0.005
0.005
0.000
0.000
0.005
0.010
0.010
0.015
0.015
0.015
0.015
0.020
0.020
0.030
0.040
0.050
0.065
0.075
0.080
0.085
0.085
0.085
0.080
0.080
0.085
0.090
0.100
0.115
0.130
0.140
0.150
0.150
0.145
0.135
0.125
0.110
0.105
0.100
0.100
0.105
0.115
0.125
0.135
0.140
0.145
0.140
0.135
0.125
0.110
0.100
0.095
0.090
0.090
0.090
0.095
0.100
0.105
0.105
0.100
0.095
0.085
0.075
0.065
0.050
0.045
0.035
0.030
0.025
0.025
0.025
0.025
0.025
0.025
0.025
0.025
0.020
0.015
0.005
0.000
-0.010
-0.015
-0.020
-0.025
-0.030
-0.030
-0.035
-0.040
-0.045
-0.050
-0.055
-0.055
-0.060
-0.060
-0.055
-0.045
-0.040
-0.030
-0.025
-0.025
-0.025
-0.030
-0.035
-0.045
-0.050
-0.050
-0.050
-0.045
-0.035
-0.025
-0.015
-0.010
-0.005
-0.005
-0.005
-0.010
-0.020
-0.025
-0.030
-0.035
-0.030
-0.030
-0.025
-0.020
-0.015
-0.015
-0.015
-0.020
-0.030
-0.040
-0.050
-0.060
-0.065
-0.065
-0.060
-0.055
-0.045
-0.035
-0.025
-0.020
-0.015
-0.020
-0.025
-0.030
-0.035
-0.035
-0.035
-0.030
-0.025
-0.015
-0.005
0.000
0.000
0.000
-0.010
-0.020
-0.030
-0.035
-0.040
-0.040
-0.035
-0.025
-0.015
-0.005
0.000
0.000
-0.005
-0.015
-0.025
-0.035
-0.045
-0.050
-0.055
-0.055
-0.055
-0.050
-0.050
-0.050
-0.045
-0.045
-0.045
-0.045
-0.040
-0.035
-0.030
-0.030
-0.025
-0.020
-0.020
-0.020
-0.020
-0.020
-0.020
-0.025
-0.025
-0.030
-0.035
-0.040
-0.045
-0.045
-0.045
-0.045
-0.040
-0.030
-0.025
-0.015
-0.010
-0.010
-0.010
-0.020
-0.030
-0.040
-0.050
-0.055
-0.060
-0.055
-0.050
-0.045
-0.035
-0.025
-0.020
-0.015
-0.015
-0.015
-0.015
-0.020
-0.020
-0.025
-0.030
-0.040
-0.045
-0.050
-0.050
-0.050
-0.050
-0.045
-0.035
-0.025
-0.015
-0.010
0.000
0.000
0.000
-0.005
-0.010
-0.015
-0.020
-0.020
-0.020
-0.020
-0.020
-0.020
-0.025
-0.030
-0.035
-0.045
-0.055
-0.065
-0.070
-0.070
-0.070
-0.070
-0.065
-0.060
-0.055
-0.050
-0.045
-0.040
-0.035
-0.035
-0.030
-0.030
-0.030
-0.030
-0.035
-0.045
-0.050
-0.055
-0.060
-0.060
-0.055
-0.045
-0.035
-0.020
-0.010
-0.005
-0.005
-0.005
-0.015
-0.025
-0.035
-0.045
-0.050
-0.055
-0.055
-0.055
-0.050
-0.050
-0.045
-0.045
-0.045
-0.040
-0.040
-0.045
-0.045
-0.045
-0.045
-0.050
-0.050
-0.050
-0.045
-0.040
-0.035
-0.030
-0.020
-0.015
-0.010
-0.005
0.000
0.000
0.005
0.005
0.010
0.010
0.010
0.005
0.000
-0.005
-0.010
-0.015
-0.015
-0.015
-0.015
-0.010
-0.010
-0.005
0.000
0.000
0.000
0.005
0.010
0.015
0.020
0.030
0.035
0.035
0.030
0.020
0.010
-0.005
-0.020
-0.030
-0.040
-0.045
-0.045
-0.045
-0.040
-0.040
-0.040
-0.040
-0.045
-0.045
-0.045
-0.045
-0.040
-0.035
-0.030
-0.025
-0.020
-0.020
-0.020
-0.025
-0.030
-0.035
-0.040
-0.050
-0.050
-0.050
-0.045
-0.030
-0.005
0.030
0.085
0.155
0.235
0.320
0.405
0.480
0.535
0.565
0.565
0.535
0.480
0.410
0.330
0.250
0.180
0.130
0.095
0.075
0.065
0.065
0.065
0.060
0.045
0.030
0.010
-0.010
-0.025
-0.035
-0.040
-0.040
-0.035
-0.035
-0.030
-0.030
-0.035
-0.040
-0.045
-0.050
-0.050
-0.050
-0.050
-0.045
-0.045
-0.045
-0.045
-0.045
-0.045
-0.045
-0.040
-0.035
-0.035
-0.030
-0.025
-0.020
-0.020
-0.020
-0.015
-0.015
-0.015
-0.015
-0.020
-0.025
-0.030
-0.035
-0.040
-0.045
-0.040
-0.035
-0.030
-0.020
-0.010
-0.005
-0.005
-0.010
-0.020
-0.030
-0.040
-0.050
-0.050
-0.045
-0.035
-0.025
-0.015
-0.005
-0.005
-0.005
-0.010
-0.015
-0.025
-0.030
-0.030
-0.030
-0.025
-0.020
-0.015
-0.010
-0.005
0.000
0.000
0.000
0.000
0.000
-0.005
-0.005
-0.010
-0.010
-0.005
0.000
0.010
0.025
0.040
0.055
0.060
0.060
0.055
0.040
0.025
0.015
0.010
0.010
0.025
0.045
0.075
0.100
0.125
0.135
0.140
0.130
0.110
0.090
0.065
0.050
0.040
0.045
0.050
0.065
0.080
0.095
0.110
0.115
0.115
0.115
0.110
0.110
0.105
0.105
0.110
0.110
0.115
0.120
0.120
0.120
0.120
0.115
0.110
0.110
0.105
0.105
0.100
0.105
0.105
0.105
0.110
0.110
0.110
0.110
0.105
0.100
0.090
0.085
0.075
0.065
0.055
0.040
0.025
0.015
0.000
-0.015
-0.025
-0.030
-0.030
-0.025
-0.020
-0.015
-0.015
-0.015
-0.020
-0.030
-0.040
-0.055
-0.065
-0.075
-0.075
-0.070
-0.055
-0.040
-0.020
-0.005
0.010
0.015
0.015
0.010
-0.005
-0.020
-0.035
-0.050
-0.060
-0.065
-0.060
-0.050
-0.035
-0.015
0.000
0.015
0.025
0.030
0.025
0.010
-0.005
-0.025
-0.045
-0.060
-0.065
-0.065
-0.055
-0.045
-0.030
-0.020
-0.010
0.000
0.000
-0.005
-0.015
-0.025
-0.035
-0.045
-0.050
-0.055
-0.055
-0.050
-0.045
-0.040
-0.035
-0.025
-0.020
-0.015
-0.015
-0.015
-0.015
-0.020
-0.025
-0.035
-0.035
-0.040
-0.040
-0.035
-0.035
-0.030
-0.030
-0.030
-0.030
-0.035
-0.040
-0.040
-0.040
-0.035
-0.025
-0.015
-0.005
0.005
0.010
0.005
0.000
-0.015
-0.025
-0.040
-0.055
-0.060
-0.060
-0.055
-0.050
-0.040
-0.035
-0.025
-0.025
-0.025
-0.025
-0.030
-0.030
-0.035
-0.035
-0.030
-0.030
-0.030
-0.030
-0.035
-0.040
-0.050
-0.055
-0.065
-0.070
-0.075
-0.075
-0.075
-0.075
-0.070
-0.070
-0.065
-0.060
-0.055
-0.050
-0.040
-0.035
-0.025
-0.020
-0.015
-0.020
-0.025
-0.035
-0.050
-0.060
-0.070
-0.075
-0.075
-0.065
-0.050
-0.035
-0.020
-0.010
0.000
0.005
0.000
-0.005
-0.015
-0.025
-0.030
-0.040
-0.050
-0.060
-0.065
-0.075
-0.085
-0.095
-0.100
-0.095
-0.090
-0.080
-0.065
-0.050
-0.040
-0.030
-0.030
-0.035
-0.040
-0.055
-0.065
-0.075
-0.080
-0.080
-0.075
-0.070
-0.065
-0.055
-0.045
-0.040
-0.040
-0.035
-0.040
-0.040
-0.045
-0.050
-0.050
-0.055
-0.055
-0.050
-0.050
-0.050
-0.045
-0.045
-0.045
-0.040
-0.040
-0.035
-0.025
-0.010
0.000
0.015
0.025
0.025
0.025
0.015
0.005
-0.015
-0.030
-0.040
-0.050
-0.050
-0.040
-0.030
-0.015
0.000
0.010
0.015
0.020
0.015
0.010
0.005
0.005
0.005
0.010
0.020
0.035
0.050
0.060
0.070
0.070
0.060
0.045
0.020
-0.005
-0.030
-0.050
-0.065
-0.075
-0.075
-0.070
-0.065
-0.055
-0.050
-0.045
-0.045
-0.045
-0.045
-0.050
-0.050
-0.045
-0.040
-0.035
-0.030
-0.030
-0.035
-0.040
-0.045
-0.055
-0.065
-0.070
-0.065
-0.050
-0.025
0.010
0.060
0.120
0.190
0.260
0.335
0.400
0.450
0.480
0.485
0.460
0.415
0.345
0.265
0.180
0.100
0.030
-0.020
-0.050
-0.065
-0.065
-0.050
-0.040
-0.025
-0.020
-0.020
-0.020
-0.030
-0.040
-0.045
-0.050
-0.050
-0.045
-0.040
-0.035
-0.030
-0.020
-0.020
-0.020
-0.025
-0.030
-0.035
-0.045
-0.055
-0.060
-0.060
-0.055
-0.050
-0.040
-0.025
-0.010
0.000
0.010
0.015
0.010
0.005
-0.010
-0.025
-0.040
-0.055
-0.065
-0.070
-0.070
-0.065
-0.060
-0.050
-0.040
-0.035
-0.025
-0.025
-0.020
-0.020
-0.020
-0.015
-0.015
-0.015
-0.015
-0.015
-0.020
-0.025
-0.035
-0.040
-0.045
-0.050
-0.050
-0.045
-0.035
-0.020
-0.005
0.010
0.015
0.020
0.020
0.015
0.005
-0.005
-0.010
-0.015
-0.015
-0.010
-0.005
0.005
0.015
0.025
0.025
0.025
0.020
0.015
0.010
0.005
0.010
0.020
0.035
0.055
0.070
0.085
0.095
0.100
0.100
0.090
0.080
0.070
0.060
0.060
0.060
0.065
0.075
0.085
0.100
0.115
0.125
0.130
0.135
0.135
0.130
0.130
0.125
0.120
0.115
0.115
0.115
0.115
0.115
0.120
0.120
0.125
0.130
0.135
0.140
0.145
0.155
0.160
0.165
0.165
0.165
0.165
0.155
0.145
0.130
0.115
0.100
0.085
0.075
0.070
0.070
0.070
0.075
0.075
0.075
0.075
0.065
0.055
0.045
0.030
0.015
0.000
-0.005
-0.015
-0.015
-0.020
-0.015
-0.015
-0.015
-0.010
-0.010
-0.010
-0.010
-0.015
-0.020
-0.025
-0.030
-0.035
-0.040
-0.040
-0.040
-0.035
-0.030
-0.025
-0.020
-0.020
-0.025
-0.030
-0.035
-0.045
-0.055
-0.060
-0.060
-0.055
-0.050
-0.040
-0.030
-0.025
-0.025
-0.030
-0.040
-0.050
-0.060
-0.070
-0.070
-0.065
-0.055
-0.040
-0.025
-0.015
-0.005
-0.005
-0.010
-0.015
-0.025
-0.035
-0.045
-0.045
-0.045
-0.040
-0.035
-0.025
-0.020
-0.020
-0.020
-0.020
-0.025
-0.025
-0.030
-0.035
-0.035
-0.035
-0.035
-0.035
-0.035
-0.035
-0.035
-0.035
-0.035
-0.040
-0.040
-0.040
-0.040
-0.040
-0.040
-0.040
-0.040
-0.040
-0.040
-0.040
-0.045
-0.045
-0.045
-0.040
-0.035
-0.030
-0.020
-0.015
-0.010
-0.010
-0.010
-0.020
-0.030
-0.040
-0.050
-0.055
-0.060
-0.060
-0.055
-0.050
-0.040
-0.035
-0.030
-0.030
-0.030
-0.035
-0.045
-0.050
-0.060
-0.065
-0.070
-0.070
-0.065
-0.060
-0.050
-0.045
-0.035
-0.030
-0.020
-0.020
-0.020
-0.020
-0.025
-0.030
-0.035
-0.040
-0.045
-0.045
-0.045
-0.045
-0.045
-0.040
-0.035
-0.025
-0.020
-0.020
-0.015
-0.015
-0.020
-0.025
-0.035
-0.045
-0.055
-0.060
-0.065
-0.070
-0.070
-0.070
-0.065
-0.060
-0.060
-0.055
-0.050
-0.045
-0.040
-0.035
-0.030
-0.025
-0.015
-0.010
0.000
0.005
0.010
0.010
0.010
0.010
0.010
0.010
0.005
0.010
0.010
0.015
0.025
0.035
0.040
0.050
0.050
0.050
0.040
0.025
0.010
-0.015
-0.035
-0.050
-0.060
-0.065
-0.065
-0.055
-0.045
-0.030
-0.020
-0.010
-0.010
-0.010
-0.015
-0.020
-0.030
-0.040
-0.045
-0.055
-0.065
-0.070
-0.080
-0.090
-0.095
-0.105
-0.110
-0.110
-0.105
-0.100
-0.090
-0.080
-0.065
-0.045
-0.025
0.005
0.045
0.095
0.155
0.225
0.290
0.355
0.410
0.445
0.460
0.455
0.430
0.385
0.330
0.270
0.205
0.150
0.105
0.070
0.045
0.025
0.015
0.005
-0.005
-0.010
-0.020
-0.030
-0.040
-0.050
-0.060
-0.065
-0.065
-0.065
-0.065
-0.060
-0.050
-0.045
-0.040
-0.040
-0.040
-0.045
-0.050
-0.055
-0.065
-0.070
-0.080
-0.085
-0.085
-0.085
-0.085
-0.080
-0.070
-0.055
-0.045
-0.030
-0.020
-0.015
-0.010
-0.015
-0.025
-0.035
-0.050
-0.065
-0.080
-0.085
-0.085
-0.075
-0.065
-0.050
-0.035
-0.020
-0.010
0.000
0.000
0.000
0.000
-0.005
-0.010
-0.015
-0.020
-0.020
-0.025
-0.030
-0.035
-0.040
-0.040
-0.035
-0.030
-0.025
-0.015
-0.005
0.000
0.005
0.005
0.000
-0.010
-0.020
-0.025
-0.025
-0.020
-0.010
0.000
0.015
0.025
0.025
0.025
0.015
0.000
-0.015
-0.025
-0.035
-0.035
-0.025
-0.010
0.005
0.025
0.045
0.055
0.065
0.065
0.065
0.055
0.050
0.045
0.040
0.040
0.040
0.045
0.055
0.065
0.075
0.085
0.095
0.100
0.105
0.110
0.110
0.110
0.110
0.105
0.110
0.110
0.115
0.115
0.120
0.120
0.120
0.120
0.115
0.115
0.110
0.115
0.115
0.120
0.120
0.120
0.115
0.105
0.090
0.065
0.045
0.030
0.020
0.020
0.025
0.035
0.050
0.060
0.065
0.065
0.055
0.040
0.020
0.000
-0.020
-0.030
-0.035
-0.035
-0.030
-0.025
-0.020
-0.015
-0.015
-0.015
-0.020
-0.020
-0.025
-0.030
-0.035
-0.045
-0.050
-0.060
-0.070
-0.075
-0.080
-0.080
-0.075
-0.070
-0.060
-0.050
-0.040
-0.035
-0.030
-0.030
-0.035
-0.035
-0.040
-0.040
-0.040
-0.035
-0.035
-0.035
-0.040
-0.045
-0.050
-0.060
-0.065
-0.075
-0.075
-0.075
-0.075
-0.070
-0.065
-0.060
-0.055
-0.050
-0.045
-0.045
-0.045
-0.040
-0.040
-0.040
-0.040
-0.040
-0.045
-0.050
-0.055
-0.055
-0.055
-0.050
-0.045
-0.035
-0.025
-0.020
-0.015
-0.015
-0.015
-0.020
-0.025
-0.035
-0.040
-0.040
-0.040
-0.035
-0.025
-0.020
-0.015
-0.010
-0.010
-0.010
-0.015
-0.020
-0.030
-0.040
-0.045
-0.050
-0.055
-0.055
-0.050
-0.050
-0.045
-0.045
-0.040
-0.040
-0.040
-0.045
-0.045
-0.045
-0.045
-0.040
-0.040
-0.035
-0.030
-0.030
-0.030
-0.035
-0.035
-0.040
-0.045
-0.045
-0.045
-0.040
-0.035
-0.030
-0.025
-0.020
-0.015
-0.015
-0.015
-0.015
-0.015
-0.020
-0.025
-0.030
-0.035
-0.040
-0.045
-0.045
-0.045
-0.040
-0.035
-0.025
-0.015
-0.005
0.000
0.000
-0.005
-0.015
-0.030
-0.040
-0.055
-0.065
-0.070
-0.070
-0.070
-0.060
-0.055
-0.045
-0.040
-0.035
-0.035
-0.035
-0.030
-0.030
-0.025
-0.020
-0.015
-0.005
0.000
0.000
-0.005
-0.010
-0.020
-0.035
-0.045
-0.060
-0.065
-0.070
-0.070
-0.065
-0.060
-0.055
-0.045
-0.045
-0.040
-0.040
-0.040
-0.040
-0.040
-0.040
-0.040
-0.035
-0.035
-0.030
-0.030
-0.030
-0.030
-0.030
-0.030
-0.030
-0.025
-0.025
-0.020
-0.015
-0.015
-0.015
-0.015
-0.020
-0.025
-0.030
-0.030
-0.030
-0.025
-0.015
0.000
0.010
0.025
0.030
0.030
0.025
0.020
0.005
-0.005
-0.015
-0.020
-0.015
-0.010
0.005
0.020
0.035
0.050
0.055
0.055
0.045
0.035
0.015
0.000
-0.020
-0.035
-0.045
-0.050
-0.055
-0.050
-0.050
-0.045
-0.040
-0.035
-0.030
-0.030
-0.030
-0.025
-0.025
-0.025
-0.020
-0.020
-0.015
-0.015
-0.015
-0.020
-0.025
-0.030
-0.040
-0.050
-0.055
-0.060
-0.055
-0.040
-0.010
0.030
0.090
0.160
0.240
0.320
0.395
0.465
0.510
0.540
0.540
0.520
0.480
0.425
0.360
0.290
0.225
0.165
0.115
0.075
0.045
0.020
0.005
-0.005
-0.010
-0.015
-0.010
-0.010
-0.005
0.000
0.000
-0.005
-0.010
-0.015
-0.030
-0.040
-0.045
-0.050
-0.050
-0.045
-0.040
-0.030
-0.025
-0.025
-0.025
-0.030
-0.035
-0.045
-0.050
-0.050
-0.045
-0.040
-0.030
-0.025
-0.020
-0.015
-0.020
-0.030
-0.045
-0.055
-0.065
-0.070
-0.075
-0.070
-0.060
-0.050
-0.040
-0.030
-0.025
-0.020
-0.020
-0.025
-0.025
-0.030
-0.030
-0.025
-0.025
-0.020
-0.020
-0.015
-0.015
-0.015
-0.015
-0.010
-0.010
-0.005
0.000
0.005
0.010
0.015
0.015
0.010
0.005
0.000
-0.010
-0.015
-0.020
-0.025
-0.020
-0.015
-0.005
0.010
0.020
0.030
0.035
0.040
0.035
0.030
0.020
0.015
0.005
0.000
0.000
0.000
0.005
0.010
0.015
0.020
0.025
0.030
0.030
0.035
0.040
0.045
0.050
0.050
0.050
0.050
0.055
0.055
0.055
0.060
0.065
0.075
0.085
0.090
0.095
0.100
0.100
0.095
0.095
0.095
0.095
0.100
0.110
0.125
0.140
0.155
0.160
0.165
0.160
0.150
0.140
0.125
0.115
0.110
0.105
0.105
0.110
0.115
0.120
0.115
0.110
0.100
0.090
0.075
0.060
0.050
0.040
0.035
0.030
0.030
0.025
0.025
0.020
0.020
0.015
0.010
0.010
0.005
-0.005
-0.010
-0.015
-0.025
-0.030
-0.035
-0.035
-0.035
-0.035
-0.025
-0.020
-0.010
-0.005
0.000
0.000
0.000
-0.005
-0.010
-0.015
-0.020
-0.025
-0.030
-0.030
-0.030
-0.030
-0.025
-0.025
-0.020
-0.015
-0.015
-0.015
-0.015
-0.020
-0.025
-0.030
-0.035
-0.035
-0.040
-0.040
-0.040
-0.035
-0.035
-0.035
-0.035
-0.035
-0.030
-0.030
-0.030
-0.025
-0.020
-0.015
-0.010
-0.010
-0.010
-0.015
-0.020
-0.025
-0.025
-0.030
-0.030
-0.025
-0.025
-0.020
-0.020
-0.020
-0.025
-0.030
-0.030
-0.030
-0.030
-0.025
-0.015
-0.010
-0.005
0.000
0.000
0.000
-0.005
-0.010
-0.015
-0.025
-0.025
-0.030
-0.030
-0.030
-0.025
-0.020
-0.015
-0.010
-0.005
0.000
0.005
0.010
0.010
0.010
0.005
0.000
-0.005
-0.015
-0.025
-0.035
-0.040
-0.040
-0.045
-0.045
-0.045
-0.040
-0.040
-0.035
-0.030
-0.025
-0.020
-0.020
-0.025
-0.030
-0.040
-0.050
-0.065
-0.070
-0.075
-0.075
-0.070
-0.055
-0.045
-0.030
-0.020
-0.015
-0.015
-0.020
-0.025
-0.030
-0.030
-0.030
-0.025
-0.020
-0.015
-0.010
-0.010
-0.015
-0.020
-0.025
-0.030
-0.035
-0.035
-0.035
-0.030
-0.025
-0.025
-0.020
-0.015
-0.015
-0.015
-0.010
-0.010
-0.010
-0.010
-0.010
-0.010
-0.015
-0.025
-0.030
-0.035
-0.040
-0.045
-0.040
-0.040
-0.035
-0.030
-0.030
-0.030
-0.030
-0.030
-0.030
-0.035
-0.030
-0.030
-0.025
-0.025
-0.020
-0.020
-0.020
-0.020
-0.020
-0.020
-0.025
-0.030
-0.030
-0.040
-0.045
-0.050
-0.060
-0.065
-0.065
-0.065
-0.060
-0.050
-0.040
-0.030
-0.020
-0.015
-0.010
-0.010
-0.015
-0.020
-0.020
-0.025
-0.030
-0.030
-0.035
-0.035
-0.040
-0.040
-0.045
-0.050
-0.050
-0.050
-0.050
-0.045
-0.040
-0.035
-0.030
-0.030
-0.035
-0.035
-0.040
-0.045
-0.050
-0.050
-0.050
-0.050
-0.050
-0.050
-0.045
-0.045
-0.040
-0.035
-0.025
-0.015
-0.005
0.005
0.015
0.020
0.025
0.020
0.020
0.015
0.010
0.010
0.015
0.015
0.020
0.025
0.025
0.020
0.015
0.005
0.000
-0.010
-0.015
-0.020
-0.020
-0.020
-0.020
-0.025
-0.030
-0.040
-0.045
-0.055
-0.060
-0.065
-0.060
-0.055
-0.045
-0.030
-0.020
-0.015
-0.015
-0.020
-0.025
-0.035
-0.045
-0.050
-0.055
-0.055
-0.050
-0.050
-0.045
-0.035
-0.030
-0.015
0.010
0.045
0.100
0.165
0.240
0.325
0.405
0.470
0.520
0.545
0.535
0.500
0.445
0.370
0.290
0.210
0.140
0.085
0.045
0.020
0.010
0.005
0.010
0.010
0.010
0.005
-0.005
-0.015
-0.030
-0.040
-0.050
-0.060
-0.065
-0.065
-0.065
-0.060
-0.060
-0.055
-0.050
-0.045
-0.040
-0.035
-0.025
-0.020
-0.020
-0.020
-0.025
-0.035
-0.045
-0.060
-0.070
-0.075
-0.075
-0.070
-0.055
-0.040
-0.025
-0.010
-0.005
-0.005
-0.010
-0.020
-0.035
-0.050
-0.060
-0.065
-0.065
-0.060
-0.050
-0.040
-0.030
-0.025
-0.025
-0.030
-0.035
-0.045
-0.055
-0.060
-0.065
-0.065
-0.065
-0.060
-0.050
-0.040
-0.035
-0.025
-0.020
-0.020
-0.020
-0.025
-0.025
-0.025
-0.025
-0.020
-0.010
-0.005
0.005
0.010
0.010
0.010
0.005
-0.005
-0.015
-0.020
-0.025
-0.020
-0.020
-0.010
0.000
0.010
0.015
0.020
0.020
0.020
0.015
0.015
0.015
0.020
0.025
0.030
0.040
0.045
0.050
0.050
0.050
0.050
0.050
0.050
0.055
0.060
0.070
0.085
0.095
0.100
0.105
0.100
0.100
0.095
0.095
0.095
0.100
0.105
0.115
0.125
0.125
0.125
0.120
0.105
0.095
0.085
0.075
0.075
0.080
0.090
0.105
0.120
0.130
0.140
0.140
0.135
0.125
0.110
0.095
0.080
0.065
0.055
0.045
0.035
0.030
0.025
0.025
0.020
0.020
0.020
0.015
0.015
0.005
-0.005
-0.015
-0.025
-0.035
-0.040
-0.045
-0.045
-0.040
-0.035
-0.030
-0.025
-0.025
-0.030
-0.035
-0.045
-0.050
-0.055
-0.055
-0.055
-0.050
-0.045
-0.040
-0.035
-0.035
-0.035
-0.035
-0.040
-0.040
-0.040
-0.040
-0.035
-0.035
-0.030
-0.025
-0.025
-0.025
-0.025
-0.025
-0.025
-0.025
-0.030
-0.030
-0.035
-0.040
-0.045
-0.050
-0.055
-0.055
-0.055
-0.055
-0.050
-0.045
-0.045
-0.040
-0.040
-0.035
-0.035
-0.035
-0.035
-0.030
-0.030
-0.025
-0.020
-0.020
-0.020
-0.020
-0.025
-0.035
-0.040
-0.045
-0.050
-0.050
-0.050
-0.050
-0.045
-0.045
-0.040
-0.035
-0.035
-0.030
-0.030
-0.025
-0.025
-0.020
-0.015
-0.015
-0.010
-0.010
-0.010
-0.010
-0.010
-0.015
-0.015
-0.020
-0.025
-0.030
-0.035
-0.040
-0.045
-0.045
-0.050
-0.045
-0.045
-0.040
-0.040
-0.035
-0.035
-0.040
-0.040
-0.040
-0.040
-0.040
-0.035
-0.030
-0.025
-0.025
-0.020
-0.020
-0.020
-0.025
-0.025
-0.030
-0.030
-0.035
-0.035
-0.040
-0.045
-0.045
-0.050
-0.055
-0.055
-0.055
-0.055
-0.050
-0.045
-0.040
-0.035
-0.030
-0.030
-0.030
-0.030
-0.035
-0.035
-0.035
-0.040
-0.040
-0.040
-0.040
-0.045
-0.055
-0.060
-0.070
-0.075
-0.080
-0.085
-0.080
-0.070
-0.060
-0.050
-0.040
-0.030
-0.025
-0.025
-0.030
-0.040
-0.045
-0.055
-0.065
-0.070
-0.070
-0.070
-0.065
-0.060
-0.050
-0.045
-0.040
-0.035
-0.035
-0.035
-0.035
-0.040
-0.040
-0.040
-0.040
-0.040
-0.040
-0.045
-0.045
-0.045
-0.045
-0.045
-0.040
-0.035
-0.030
-0.025
-0.020
-0.015
-0.010
-0.010
-0.010
-0.015
-0.020
-0.025
-0.035
-0.035
-0.035
-0.035
-0.030
-0.030
-0.025
-0.025
-0.025
-0.030
-0.035
-0.035
-0.035
-0.030
-0.020
-0.005
0.010
0.025
0.035
0.040
0.040
0.035
0.025
0.015
0.005
0.000
-0.005
-0.005
-0.005
-0.005
-0.005
-0.005
-0.010
-0.020
-0.025
-0.030
-0.035
-0.035
-0.035
-0.035
-0.035
-0.035
-0.040
-0.050
-0.055
-0.065
-0.070
-0.070
-0.065
-0.055
-0.045
-0.035
-0.030
-0.025
-0.025
-0.030
-0.040
-0.050
-0.060
-0.070
-0.070
-0.060
-0.040
-0.005
0.040
0.100
0.160
0.230
0.295
0.350
0.390
0.410
0.405
0.380
0.340
0.280
0.215
0.150
0.090
0.045
0.010
-0.010
-0.020
-0.020
-0.020
-0.020
-0.020
-0.025
-0.030
-0.040
-0.045
-0.055
-0.055
-0.055
-0.055
-0.050
-0.045
-0.040
-0.040
-0.040
-0.040
-0.040
-0.045
-0.045
-0.050
-0.050
-0.050
-0.050
-0.050
-0.045
-0.035
-0.030
-0.020
-0.010
-0.005
-0.005
-0.010
-0.020
-0.030
-0.045
-0.055
-0.065
-0.070
-0.065
-0.060
-0.050
-0.035
-0.025
-0.015
-0.010
-0.005
-0.010
-0.010
-0.015
-0.020
-0.020
-0.020
-0.015
-0.010
-0.010
-0.010
-0.010
-0.015
-0.020
-0.025
-0.025
-0.025
-0.025
-0.015
-0.010
0.000
0.005
0.005
0.005
0.000
-0.005
-0.010
-0.015
-0.020
-0.020
-0.010
0.000
0.015
0.025
0.040
0.050
0.055
0.050
0.045
0.035
0.025
0.010
0.005
0.000
0.000
0.005
0.020
0.030
0.045
0.060
0.065
0.070
0.070
0.065
0.060
0.060
0.060
0.060
0.065
0.075
0.085
0.095
0.100
0.105
0.105
0.105
0.105
0.105
0.105
0.110
0.120
0.130
0.140
0.145
0.155
0.155
0.155
0.155
0.150
0.145
0.135
0.130
0.130
0.125
0.125
0.130
0.130
0.135
0.135
0.140
0.135
0.130
0.125
0.115
0.100
0.085
0.075
0.065
0.055
0.055
0.050
0.050
0.055
0.055
0.055
0.050
0.045
0.040
0.035
0.025
0.015
0.010
0.000
-0.005
-0.015
-0.020
-0.030
-0.035
-0.040
-0.045
-0.040
-0.035
-0.030
-0.025
-0.015
-0.015
-0.010
-0.015
-0.020
-0.030
-0.035
-0.045
-0.055
-0.060
-0.065
-0.070
-0.070
-0.070
-0.070
-0.070
-0.070
-0.065
-0.060
-0.050
-0.045
-0.035
-0.030
-0.030
-0.030
-0.035
-0.040
-0.045
-0.045
-0.045
-0.040
-0.035
-0.030
-0.025
-0.025
-0.025
-0.030
-0.040
-0.050
-0.055
-0.055
-0.050
-0.040
-0.025
-0.005
0.010
0.020
0.020
0.020
0.005
-0.005
-0.020
-0.035
-0.040
-0.045
-0.040
-0.035
-0.025
-0.015
-0.010
-0.005
-0.010
-0.010
-0.015
-0.020
-0.025
-0.030
-0.030
-0.030
-0.030
-0.025
-0.030
-0.030
-0.030
-0.030
-0.030
-0.030
-0.030
-0.025
-0.020
-0.020
-0.015
-0.015
-0.020
-0.025
-0.035
-0.045
-0.050
-0.060
-0.065
-0.065
-0.060
-0.055
-0.045
-0.035
-0.020
-0.010
0.005
0.010
0.015
0.015
0.005
-0.005
-0.020
-0.035
-0.045
-0.055
-0.060
-0.060
-0.055
-0.050
-0.040
-0.030
-0.025
-0.020
-0.020
-0.025
-0.035
-0.040
-0.050
-0.060
-0.065
-0.070
-0.070
-0.070
-0.065
-0.060
-0.055
-0.050
-0.045
-0.040
-0.035
-0.030
-0.030
-0.030
-0.030
-0.035
-0.035
-0.040
-0.040
-0.035
-0.035
-0.025
-0.020
-0.010
-0.005
0.000
0.005
0.000
-0.005
-0.015
-0.030
-0.040
-0.045
-0.050
-0.050
-0.050
-0.040
-0.035
-0.025
-0.025
-0.020
-0.025
-0.030
-0.035
-0.040
-0.040
-0.035
-0.025
-0.015
0.000
0.010
0.020
0.030
0.030
0.030
0.025
0.020
0.015
0.015
0.020
0.025
0.030
0.040
0.040
0.040
0.030
0.020
0.000
-0.020
-0.040
-0.060
-0.075
-0.085
-0.090
-0.090
-0.080
-0.065
-0.050
-0.035
-0.020
-0.010
-0.005
-0.005
-0.015
-0.025
-0.040
-0.060
-0.075
-0.090
-0.100
-0.105
-0.105
-0.100
-0.090
-0.075
-0.055
-0.025
0.015
0.060
0.120
0.185
0.260
0.335
0.400
0.460
0.500
0.515
0.510
0.480
0.430
0.365
0.295
0.225
0.160
0.105
0.070
0.045
0.035
0.030
0.025
0.020
0.010
-0.005
-0.025
-0.040
-0.060
-0.070
-0.075
-0.075
-0.070
-0.065
-0.055
-0.045
-0.040
-0.035
-0.030
-0.030
-0.025
-0.020
-0.015
-0.015
-0.015
-0.020
-0.030
-0.040
-0.050
-0.060
-0.070
-0.070
-0.070
-0.060
-0.050
-0.040
-0.030
-0.025
-0.020
-0.020
-0.020
-0.025
-0.030
-0.035
-0.040
-0.045
-0.045
-0.045
-0.040
-0.040
-0.040
-0.040
-0.040
-0.045
-0.045
-0.045
-0.050
-0.050
-0.045
-0.045
-0.035
-0.030
-0.020
-0.015
-0.010
-0.005
-0.005
-0.010
-0.015
-0.025
-0.035
-0.040
-0.050
-0.050
-0.045
-0.040
-0.030
-0.020
-0.005
0.005
0.020
0.025
0.030
0.030
0.030
0.025
0.020
0.015
0.010
0.015
0.020
0.030
0.040
0.050
0.060
0.060
0.055
0.050
0.040
0.025
0.020
0.020
0.020
0.030
0.045
0.055
0.065
0.070
0.075
0.070
0.065
0.060
0.060
0.055
0.060
0.065
0.070
0.075
0.080
0.080
0.085
0.090
0.100
0.110
0.125
0.140
0.150
0.160
0.160
0.155
0.145
0.130
0.110
0.100
0.090
0.090
0.095
0.105
0.115
0.120
0.125
0.120
0.115
0.100
0.080
0.065
0.045
0.035
0.025
0.020
0.015
0.015
0.015
0.015
0.015
0.010
0.005
0.000
-0.005
-0.010
-0.015
-0.015
-0.020
-0.025
-0.030
-0.030
-0.035
-0.035
-0.035
-0.035
-0.035
-0.030
-0.030
-0.030
-0.030
-0.030
-0.030
-0.030
-0.030
-0.030
-0.030
-0.025
-0.025
-0.030
-0.030
-0.035
-0.045
-0.050
-0.060
-0.065
-0.065
-0.060
-0.055
-0.045
-0.040
-0.035
-0.030
-0.030
-0.035
-0.045
-0.055
-0.060
-0.070
-0.070
-0.070
-0.065
-0.060
-0.050
-0.045
-0.045
-0.045
-0.045
-0.045
-0.045
-0.045
-0.040
-0.035
-0.030
-0.020
-0.020
-0.020
-0.020
-0.025
-0.030
-0.035
-0.035
-0.035
-0.025
-0.015
-0.005
0.000
0.005
0.000
-0.010
-0.025
-0.045
-0.060
-0.070
-0.075
-0.065
-0.055
-0.035
-0.020
-0.005
-0.005
-0.005
-0.015
-0.030
-0.045
-0.060
-0.065
-0.065
-0.065
-0.060
-0.050
-0.050
-0.050
-0.055
-0.060
-0.060
-0.060
-0.055
-0.045
-0.030
-0.020
-0.015
-0.010
-0.015
-0.025
-0.035
-0.045
-0.055
-0.055
-0.045
-0.035
-0.020
-0.005
0.010
0.015
0.015
0.010
0.000
-0.015
-0.030
-0.040
-0.050
-0.060
-0.060
-0.060
-0.060
-0.055
-0.055
-0.050
-0.045
-0.040
-0.035
-0.035
-0.035
-0.040
-0.045
-0.055
-0.070
-0.080
-0.090
-0.090
-0.090
-0.085
-0.070
-0.055
-0.040
-0.025
-0.020
-0.015
-0.015
-0.015
-0.025
-0.030
-0.035
-0.035
-0.040
-0.040
-0.035
-0.035
-0.035
-0.030
-0.030
-0.025
-0.025
-0.020
-0.015
-0.015
-0.010
-0.010
-0.015
-0.015
-0.020
-0.025
-0.035
-0.040
-0.050
-0.060
-0.065
-0.075
-0.075
-0.075
-0.075
-0.065
-0.055
-0.040
-0.025
-0.015
-0.010
-0.010
-0.010
-0.020
-0.030
-0.035
-0.040
-0.040
-0.035
-0.030
-0.025
-0.025
-0.025
-0.025
-0.030
-0.030
-0.030
-0.030
-0.020
-0.010
-0.005
0.005
0.010
0.005
0.000
-0.010
-0.015
-0.025
-0.025
-0.025
-0.020
-0.010
-0.005
0.000
0.005
0.005
0.005
0.005
0.010
0.015
0.020
0.030
0.040
0.045
0.045
0.040
0.035
0.025
0.015
0.000
-0.005
-0.010
-0.015
-0.015
-0.015
-0.015
-0.020
-0.025
-0.030
-0.035
-0.035
-0.035
-0.030
-0.025
-0.020
-0.015
-0.010
-0.015
-0.020
-0.025
-0.035
-0.050
-0.055
-0.060
-0.060
-0.055
-0.045
-0.035
-0.020
-0.010
-0.010
-0.005
-0.010
-0.010
-0.010
0.000
0.030
0.075
0.135
0.210
0.295
0.380
0.455
0.510
0.540
0.540
0.515
0.465
0.395
0.315
0.240
0.175
0.120
0.080
0.055
0.045
0.035
0.030
0.020
0.010
0.000
-0.010
-0.025
-0.030
-0.035
-0.035
-0.035
-0.030
-0.025
-0.025
-0.030
-0.030
-0.035
-0.040
-0.035
-0.035
-0.025
-0.020
-0.010
-0.005
0.000
0.000
-0.005
-0.010
-0.015
-0.020
-0.025
-0.025
-0.025
-0.030
-0.030
-0.030
-0.035
-0.035
-0.035
-0.040
-0.040
-0.035
-0.035
-0.035
-0.035
-0.040
-0.040
-0.045
-0.045
-0.045
-0.040
-0.030
-0.020
-0.010
0.000
0.005
0.010
0.010
0.005
0.000
-0.005
-0.010
-0.010
-0.015
-0.015
-0.015
-0.015
-0.015
-0.020
-0.020
-0.025
-0.030
-0.030
-0.025
-0.020
-0.015
-0.010
0.000
0.005
0.005
0.010
0.010
0.015
0.015
0.020
0.025
0.030
0.035
0.040
0.040
0.035
0.035
0.030
0.030
0.030
0.035
0.045
0.060
0.075
0.090
0.100
0.110
0.110
0.110
0.100
0.095
0.090
0.085
0.085
0.090
0.090
0.095
0.090
0.085
0.080
0.070
0.065
0.065
0.070
0.080
0.100
0.120
0.135
0.150
0.160
0.160
0.150
0.140
0.130
0.115
0.110
0.110
0.115
0.125
0.135
0.145
0.145
0.145
0.140
0.130
0.120
0.110
0.100
0.095
0.095
0.095
0.095
0.100
0.100
0.095
0.095
0.085
0.075
0.065
0.055
0.040
0.030
0.020
0.010
0.000
-0.005
-0.010
-0.010
-0.010
-0.005
0.000
0.005
0.010
0.015
0.015
0.010
0.005
0.000
-0.010
-0.025
-0.035
-0.040
-0.045
-0.050
-0.050
-0.045
-0.040
-0.040
-0.035
-0.030
-0.030
-0.025
-0.025
-0.020
-0.015
-0.010
-0.010
-0.005
-0.005
-0.010
-0.015
-0.015
-0.020
-0.020
-0.025
-0.025
-0.020
-0.020
-0.020
-0.020
-0.025
-0.030
-0.035
-0.035
-0.030
-0.030
-0.020
-0.015
-0.010
-0.005
-0.005
-0.015
-0.020
-0.030
-0.040
-0.045
-0.050
-0.045
-0.040
-0.030
-0.025
-0.020
-0.020
-0.020
-0.020
-0.020
-0.020
-0.020
-0.015
-0.010
-0.005
-0.005
-0.005
-0.015
-0.025
-0.035
-0.045
-0.055
-0.055
-0.050
-0.040
-0.030
-0.020
-0.015
-0.010
-0.015
-0.020
-0.025
-0.030
-0.035
-0.035
-0.030
-0.030
-0.030
-0.030
-0.035
-0.040
-0.050
-0.060
-0.065
-0.065
-0.060
-0.050
-0.040
-0.030
-0.020
-0.015
-0.015
-0.020
-0.025
-0.035
-0.035
-0.035
-0.035
-0.030
-0.025
-0.020
-0.020
-0.025
-0.030
-0.040
-0.045
-0.050
-0.050
-0.045
-0.040
-0.030
-0.025
-0.020
-0.025
-0.030
-0.035
-0.045
-0.045
-0.040
-0.030
-0.010
0.005
0.025
0.035
0.035
0.020
0.000
-0.030
-0.065
-0.095
-0.115
-0.120
-0.115
-0.100
-0.075
-0.045
-0.020
-0.005
0.000
0.000
-0.010
-0.025
-0.040
-0.050
-0.055
-0.055
-0.055
-0.050
-0.050
-0.050
-0.055
-0.065
-0.075
-0.085
-0.090
-0.095
-0.090
-0.085
-0.075
-0.065
-0.050
-0.040
-0.030
-0.020
-0.015
-0.015
-0.010
-0.015
-0.020
-0.025
-0.035
-0.045
-0.050
-0.055
-0.060
-0.055
-0.050
-0.040
-0.035
-0.025
-0.020
-0.015
-0.015
-0.020
-0.020
-0.020
-0.015
-0.015
-0.005
0.000
0.010
0.015
0.015
0.015
0.015
0.010
0.010
0.010
0.015
0.015
0.020
0.025
0.030
0.025
0.020
0.015
0.000
-0.015
-0.030
-0.045
-0.055
-0.065
-0.070
-0.075
-0.075
-0.075
-0.070
-0.070
-0.065
-0.065
-0.060
-0.060
-0.055
-0.050
-0.045
-0.040
-0.035
-0.035
-0.035
-0.040
-0.045
-0.055
-0.065
-0.075
-0.080
-0.085
-0.090
-0.085
-0.075
-0.055
-0.030
0.010
0.060
0.115
0.180
0.250
0.315
0.375
0.415
0.440
0.440
0.415
0.370
0.305
0.235
0.160
0.090
0.030
-0.015
-0.040
-0.055
-0.055
-0.050
-0.040
-0.030
-0.020
-0.020
-0.020
-0.025
-0.030
-0.030
-0.035
-0.040
-0.040
-0.045
-0.050
-0.055
-0.060
-0.065
-0.070
-0.070
-0.070
-0.065
-0.055
-0.050
-0.050
-0.050
-0.060
-0.070
-0.085
-0.095
-0.100
-0.095
-0.085
-0.070
-0.045
-0.025
-0.010
0.000
0.000
-0.010
-0.030
-0.050
-0.065
-0.075
-0.075
-0.070
-0.060
-0.045
-0.035
-0.025
-0.020
-0.025
-0.030
-0.040
-0.050
-0.055
-0.060
-0.060
-0.060
-0.060
-0.060
-0.055
-0.055
-0.055
-0.050
-0.045
-0.040
-0.035
-0.030
-0.025
-0.025
-0.025
-0.025
-0.025
-0.025
-0.020
-0.015
-0.015
-0.010
-0.010
-0.010
-0.010
-0.010
-0.015
-0.015
-0.015
-0.010
-0.005
0.000
0.005
0.005
0.005
0.000
0.000
-0.005
-0.005
0.000
0.010
0.025
0.035
0.050
0.055
0.065
0.065
0.065
0.070
0.070
0.075
0.085
0.090
0.095
0.100
0.095
0.090
0.080
0.065
0.060
0.060
0.065
0.075
0.095
0.115
0.130
0.145
0.145
0.140
0.125
0.110
0.095
0.080
0.075
0.075
0.080
0.090
0.100
0.105
0.105
0.100
0.090
0.080
0.065
0.050
0.040
0.035
0.035
0.035
0.040
0.040
0.040
0.035
0.030
0.020
0.010
0.005
0.000
-0.005
-0.005
-0.005
-0.005
-0.010
-0.015
-0.025
-0.035
-0.045
-0.055
-0.055
-0.055
-0.045
-0.035
-0.025
-0.020
-0.015
-0.025
-0.035
-0.050
-0.070
-0.090
-0.100
-0.105
-0.100
-0.090
-0.075
-0.065
-0.055
-0.050
-0.055
-0.060
-0.070
-0.075
-0.075
-0.070
-0.060
-0.045
-0.035
-0.030
-0.035
-0.040
-0.055
-0.070
-0.085
-0.090
-0.085
-0.075
-0.055
-0.035
-0.020
-0.010
-0.010
-0.015
-0.030
-0.045
-0.060
-0.070
-0.075
-0.070
-0.065
-0.050
-0.040
-0.030
-0.030
-0.025
-0.030
-0.035
-0.040
-0.045
-0.050
-0.055
-0.060
-0.065
-0.070
-0.075
-0.075
-0.075
-0.070
-0.060
-0.050
-0.045
-0.035
-0.030
-0.030
-0.030
-0.035
-0.035
-0.040
-0.040
-0.040
-0.035
-0.035
-0.030
-0.030
-0.035
-0.040
-0.045
-0.050
-0.050
-0.050
-0.045
-0.035
-0.030
-0.030
-0.030
-0.035
-0.045
-0.060
-0.070
-0.080
-0.090
-0.085
-0.080
-0.065
-0.050
-0.035
-0.020
-0.010
-0.010
-0.010
-0.015
-0.025
-0.030
-0.040
-0.045
-0.045
-0.045
-0.040
-0.035
-0.030
-0.030
-0.025
-0.020
-0.020
-0.020
-0.020
-0.015
-0.015
-0.010
-0.005
0.000
0.005
0.010
0.015
0.020
0.015
0.015
0.010
0.000
-0.005
-0.005
-0.005
-0.005
0.000
0.010
0.015
0.015
0.010
0.000
-0.020
-0.035
-0.055
-0.070
-0.075
-0.075
-0.065
-0.045
-0.030
-0.015
-0.005
0.000
-0.005
-0.015
-0.030
-0.040
-0.050
-0.050
-0.045
-0.040
-0.030
-0.020
-0.015
-0.015
-0.015
-0.025
-0.030
-0.040
-0.045
-0.050
-0.050
-0.050
-0.050
-0.045
-0.035
-0.025
-0.005
0.025
0.065
0.115
0.170
0.230
0.285
0.335
0.370
0.385
0.375
0.345
0.295
0.230
0.160
0.090
0.025
-0.025
-0.060
-0.080
-0.080
-0.075
-0.055
-0.040
-0.025
-0.015
-0.010
-0.010
-0.015
-0.020
-0.025
-0.025
-0.030
-0.025
-0.025
-0.025
-0.020
-0.020
-0.020
-0.020
-0.020
-0.020
-0.020
-0.020
-0.020
-0.020
-0.020
-0.025
-0.030
-0.035
-0.040
-0.045
-0.045
-0.040
-0.035
-0.025
-0.015
-0.005
0.000
0.010
0.010
0.010
0.005
0.000
-0.010
-0.020
-0.025
-0.030
-0.030
-0.030
-0.020
-0.010
0.000
0.010
0.015
0.020
0.020
0.015
0.010
0.010
0.005
0.005
0.005
0.010
0.015
0.020
0.025
0.025
0.020
0.020
0.015
0.020
0.020
0.025
0.035
0.040
0.040
0.040
0.035
0.025
0.015
0.010
0.005
0.005
0.015
0.025
0.040
0.055
0.065
0.070
0.070
0.070
0.060
0.055
0.055
0.055
0.060
0.070
0.080
0.090
0.095
0.105
0.105
0.110
0.110
0.110
0.110
0.115
0.120
0.125
0.135
0.140
0.145
0.155
0.160
0.165
0.170
0.170
0.175
0.175
0.175
0.175
0.175
0.175
0.175
0.170
0.170
0.165
0.160
0.160
0.155
0.155
0.160
0.165
0.170
0.175
0.175
0.175
0.165
0.150
0.135
0.110
0.090
0.075
0.060
0.055
0.055
0.060
0.065
0.070
0.070
0.065
0.060
0.050
0.035
0.030
0.020
0.015
0.015
0.015
0.010
0.010
0.005
-0.005
-0.010
-0.020
-0.020
-0.020
-0.020
-0.010
-0.005
0.005
0.005
0.010
0.005
-0.005
-0.015
-0.030
-0.045
-0.060
-0.070
-0.080
-0.080
-0.080
-0.070
-0.060
-0.045
-0.025
-0.015
-0.005
-0.005
-0.010
-0.025
-0.040
-0.060
-0.070
-0.080
-0.075
-0.065
-0.050
-0.030
-0.015
0.000
0.005
0.010
0.005
0.000
-0.005
-0.010
-0.010
-0.010
-0.005
-0.005
-0.010
-0.015
-0.025
-0.035
-0.045
-0.050
-0.050
-0.050
-0.040
-0.035
-0.030
-0.030
-0.030
-0.035
-0.045
-0.050
-0.050
-0.050
-0.045
-0.035
-0.025
-0.020
-0.020
-0.025
-0.035
-0.045
-0.055
-0.060
-0.060
-0.055
-0.045
-0.035
-0.030
-0.025
-0.025
-0.030
-0.035
-0.045
-0.050
-0.050
-0.050
-0.045
-0.035
-0.030
-0.020
-0.020
-0.020
-0.025
-0.030
-0.030
-0.035
-0.035
-0.030
-0.030
-0.025
-0.025
-0.030
-0.035
-0.040
-0.045
-0.055
-0.060
-0.065
-0.070
-0.075
-0.080
-0.085
-0.095
-0.100
-0.105
-0.105
-0.105
-0.095
-0.085
-0.075
-0.060
-0.050
-0.045
-0.045
-0.050
-0.060
-0.070
-0.080
-0.090
-0.095
-0.095
-0.095
-0.090
-0.080
-0.075
-0.070
-0.065
-0.060
-0.060
-0.055
-0.055
-0.055
-0.050
-0.045
-0.035
-0.030
-0.020
-0.015
-0.010
-0.010
-0.015
-0.020
-0.025
-0.030
-0.040
-0.040
-0.040
-0.035
-0.030
-0.020
-0.015
-0.010
-0.005
-0.010
-0.015
-0.025
-0.040
-0.050
-0.060
-0.070
-0.080
-0.085
-0.090
-0.100
-0.105
-0.115
-0.120
-0.120
-0.110
-0.100
-0.090
-0.075
-0.060
-0.050
-0.045
-0.050
-0.055
-0.070
-0.080
-0.085
-0.090
-0.090
-0.085
-0.075
-0.065
-0.060
-0.050
-0.040
-0.020
0.015
0.060
0.125
0.200
0.290
0.375
0.450
0.505
0.540
0.540
0.510
0.460
0.390
0.310
0.235
0.165
0.105
0.060
0.030
0.010
0.000
-0.005
-0.010
-0.015
-0.020
-0.025
-0.035
-0.040
-0.045
-0.050
-0.055
-0.055
-0.055
-0.050
-0.045
-0.040
-0.035
-0.030
-0.025
-0.025
-0.025
-0.030
-0.040
-0.045
-0.045
-0.050
-0.045
-0.045
-0.035
-0.030
-0.025
-0.020
-0.020
-0.020
-0.020
-0.020
-0.025
-0.025
-0.025
-0.025
-0.030
-0.030
-0.035
-0.040
-0.045
-0.050
-0.055
-0.055
-0.050
-0.040
-0.030
-0.020
-0.015
-0.010
-0.010
-0.010
-0.015
-0.015
-0.015
-0.015
-0.010
0.000
0.005
0.010
0.005
0.000
-0.010
-0.020
-0.030
-0.030
-0.025
-0.015
0.000
0.020
0.040
0.050
0.055
0.055
0.045
0.035
0.020
0.015
0.005
0.005
0.010
0.015
0.025
0.025
0.030
0.030
0.025
0.025
0.020
0.025
0.025
0.035
0.040
0.050
0.055
0.065
0.070
0.075
0.080
0.080
0.080
0.080
0.080
0.080
0.080
0.080
0.085
0.090
0.095
0.100
0.110
0.115
0.115
0.115
0.115
0.115
0.110
0.110
0.115
0.115
0.120
0.120
0.120
0.115
0.105
0.095
0.085
0.075
0.070
0.070
0.080
0.090
0.100
0.110
0.115
0.115
0.105
0.095
0.080
0.065
0.050
0.040
0.030
0.030
0.025
0.025
0.025
0.020
0.015
0.010
0.000
-0.015
-0.025
-0.040
-0.050
-0.065
-0.070
-0.080
-0.080
-0.085
-0.080
-0.075
-0.070
-0.065
-0.060
-0.055
-0.055
-0.055
-0.055
-0.055
-0.060
-0.065
-0.075
-0.080
-0.090
-0.095
-0.100
-0.105
-0.105
-0.105
-0.100
-0.100
-0.095
-0.095
-0.090
-0.095
-0.095
-0.100
-0.105
-0.110
-0.115
-0.115
-0.115
-0.120
-0.120
-0.120
-0.120
-0.120
-0.120
-0.120
-0.115
-0.110
-0.105
-0.100
-0.090
-0.090
-0.090
-0.095
-0.100
-0.110
-0.120
-0.125
-0.130
-0.130
-0.130
-0.120
-0.115
-0.105
-0.095
-0.090
-0.090
-0.090
-0.095
-0.100
-0.105
-0.110
-0.115
-0.115
-0.120
-0.125
-0.125
-0.125
-0.125
-0.120
-0.115
-0.105
-0.095
-0.085
-0.080
-0.075
-0.075
-0.085
-0.090
-0.105
-0.115
-0.120
-0.125
-0.125
-0.120
-0.115
-0.110
-0.100
-0.095
-0.095
-0.090
-0.090
-0.090
-0.085
-0.080
-0.080
-0.075
-0.070
-0.070
-0.070
-0.070
-0.070
-0.070
-0.070
-0.065
-0.065
-0.060
-0.055
-0.055
-0.060
-0.065
-0.070
-0.075
-0.080
-0.080
-0.080
-0.075
-0.070
-0.065
-0.065
-0.060
-0.060
-0.055
-0.045
-0.040
-0.025
-0.015
0.000
0.005
0.010
0.010
0.005
-0.005
-0.015
-0.020
-0.025
-0.015
-0.005
0.010
0.030
0.045
0.060
0.070
0.075
0.075
0.075
0.075
0.075
0.085
0.090
0.100
0.110
0.115
0.120
0.115
0.115
0.110
0.110
0.105
0.110
0.110
0.110
0.110
0.110
0.105
0.095
0.090
0.080
0.070
0.065
0.060
0.060
0.060
0.065
0.065
0.065
0.060
0.060
0.055
0.050
0.050
0.045
0.040
0.040
0.035
0.035
0.030
0.030
0.030
0.030
0.025
0.025
0.020
0.020
0.015
0.020
0.025
0.045
0.075
0.125
0.185
0.255
0.330
0.405
0.475
0.530
0.565
0.575
0.565
0.530
0.480
0.420
0.355
0.290
0.235
0.185
0.150
0.125
0.105
0.095
0.085
0.075
0.060
0.045
0.030
0.015
0.000
-0.015
-0.025
-0.030
-0.030
-0.030
-0.030
-0.025
-0.020
-0.015
-0.015
-0.010
-0.005
-0.005
-0.005
-0.005
-0.010
-0.015
-0.020
-0.025
-0.030
-0.035
-0.035
-0.035
-0.030
-0.025
-0.015
-0.005
0.005
0.020
0.025
0.035
0.040
0.040
0.035
0.030
0.025
0.015
0.005
-0.005
-0.015
-0.025
-0.030
-0.035
-0.035
-0.030
-0.025
-0.015
-0.005
0.005
0.010
0.020
0.025
0.025
0.025
0.020
0.010
0.000
-0.010
-0.015
-0.025
-0.025
-0.025
-0.020
-0.015
-0.010
0.000
0.000
0.005
0.000
0.000
0.000
0.000
0.000
0.010
0.015
0.025
0.030
0.035
0.035
0.035
0.030
0.025
0.020
0.020
0.025
0.035
0.045
0.060
0.070
0.080
0.085
0.085
0.080
0.070
0.060
0.050
0.045
0.040
0.045
0.055
0.070
0.085
0.100
0.115
0.130
0.140
0.145
0.145
0.145
0.145
0.140
0.140
0.135
0.135
0.130
0.125
0.120
0.115
0.110
0.105
0.100
0.100
0.105
0.110
0.115
0.125
0.135
0.140
0.145
0.140
0.135
0.125
0.110
0.095
0.080
0.070
0.060
0.055
0.055
0.055
0.055
0.060
0.060
0.060
0.055
0.050
0.040
0.030
0.020
0.010
0.000
-0.005
-0.015
-0.020
-0.025
-0.030
-0.035
-0.040
-0.040
-0.035
-0.030
-0.025
-0.020
-0.010
-0.005
0.000
0.005
0.005
0.000
0.000
-0.005
-0.010
-0.010
-0.015
-0.015
-0.020
-0.020
-0.020
-0.025
-0.025
-0.020
-0.020
-0.015
-0.005
0.000
0.005
0.010
0.010
0.010
0.005
0.000
-0.005
-0.015
-0.020
-0.020
-0.020
-0.020
-0.015
-0.010
-0.010
-0.005
-0.005
-0.005
-0.010
-0.010
-0.015
-0.020
-0.020
-0.020
-0.020
-0.015
-0.015
-0.010
-0.005
-0.005
0.000
0.000
0.000
0.000
0.000
0.000
0.000
0.000
0.005
