0.000
-0.015
-0.030
-0.040
-0.055
-0.060
-0.070
-0.075
-0.075
-0.070
-0.065
-0.065
-0.060
-0.055
-0.055
-0.060
-0.065
-0.065
-0.070
-0.070
-0.070
-0.070
-0.065
-0.065
-0.065
-0.065
-0.075
-0.080
-0.090
-0.100
-0.110
-0.115
-0.120
-0.120
-0.120
-0.115
-0.110
-0.105
-0.095
-0.085
-0.070
-0.050
-0.020
0.015
0.060
0.110
0.160
0.205
0.240
0.260
0.260
0.235
0.190
0.125
0.050
-0.035
-0.125
-0.220
-0.305
-0.385
-0.460
-0.525
-0.580
-0.620
-0.645
-0.650
-0.640
-0.610
-0.565
-0.510
-0.450
-0.390
-0.330
-0.285
-0.240
-0.205
-0.180
-0.160
-0.145
-0.130
-0.115
-0.100
-0.090
-0.080
-0.065
-0.055
-0.045
-0.030
-0.020
-0.010
0.000
0.000
0.000
-0.010
-0.020
-0.030
-0.040
-0.045
-0.040
-0.035
-0.020
-0.005
0.005
0.020
0.025
0.025
0.020
0.010
0.000
-0.005
-0.010
-0.010
0.000
0.010
0.020
0.035
0.050
0.060
0.070
0.075
0.080
0.080
0.075
0.070
0.065
0.055
0.045
0.035
0.025
0.020
0.020
0.030
0.045
0.065
0.085
0.105
0.125
0.135
0.140
0.140
0.130
0.125
0.115
0.105
0.100
0.095
0.095
0.090
0.090
0.095
0.095
0.105
0.115
0.130
0.150
0.170
0.185
0.205
0.215
0.225
0.225
0.225
0.220
0.215
0.215
0.215
0.220
0.230
0.240
0.255
0.270
0.285
0.300
0.315
0.330
0.335
0.345
0.345
0.345
0.340
0.330
0.325
0.320
0.315
0.310
0.305
0.300
0.295
0.285
0.275
0.265
0.250
0.240
0.230
0.220
0.220
0.215
0.215
0.215
0.210
0.205
0.195
0.180
0.160
0.140
0.120
0.100
0.085
0.070
0.055
0.045
0.035
0.025
0.010
0.000
-0.015
-0.030
-0.040
-0.050
-0.055
-0.055
-0.055
-0.050
-0.040
-0.035
-0.030
-0.025
-0.025
-0.025
-0.030
-0.030
-0.035
-0.035
-0.040
-0.040
-0.040
-0.040
-0.040
-0.040
-0.035
-0.030
-0.025
-0.020
-0.020
-0.015
-0.020
-0.025
-0.030
-0.035
-0.040
-0.045
-0.045
-0.040
-0.035
-0.025
-0.010
-0.005
0.005
0.010
0.010
0.005
0.000
-0.005
-0.010
-0.015
-0.010
-0.010
-0.005
0.005
0.015
0.020
0.025
0.030
0.030
0.025
0.015
0.000
-0.015
-0.030
-0.040
-0.050
-0.050
-0.040
-0.025
-0.010
0.010
0.030
0.040
0.050
0.050
0.045
0.035
0.025
0.015
0.005
0.000
0.000
0.005
0.010
0.015
0.020
0.020
0.025
0.025
0.025
0.025
0.025
0.025
0.020
0.015
0.010
0.005
0.000
-0.010
-0.015
-0.020
-0.025
-0.025
-0.025
-0.025
-0.025
-0.025
-0.025
-0.030
-0.030
-0.030
-0.030
-0.025
-0.020
-0.015
-0.010
-0.005
0.000
0.000
0.005
0.005
0.005
0.000
-0.005
-0.010
-0.020
-0.025
-0.030
-0.040
-0.040
-0.045
-0.045
-0.040
-0.035
-0.030
-0.030
-0.030
-0.030
-0.035
-0.040
-0.045
-0.045
-0.045
-0.035
-0.025
-0.010
0.005
0.025
0.035
0.040
0.040
0.035
0.020
0.000
-0.020
-0.035
-0.050
-0.060
-0.060
-0.060
-0.050
-0.040
-0.030
-0.020
-0.015
-0.015
-0.015
-0.020
-0.025
-0.035
-0.040
-0.050
-0.050
-0.055
-0.050
-0.040
-0.030
-0.015
0.000
0.010
0.020
0.025
0.025
0.015
0.005
-0.010
-0.020
-0.035
-0.040
-0.045
-0.045
-0.045
-0.040
-0.040
-0.040
-0.045
-0.050
-0.055
-0.060
-0.065
-0.065
-0.065
-0.060
-0.055
-0.045
-0.035
-0.030
-0.025
-0.025
-0.025
-0.030
-0.030
-0.030
-0.030
-0.020
-0.005
0.020
0.050
0.085
0.125
0.160
0.190
0.215
0.220
0.210
0.180
0.125
0.055
-0.035
-0.130
-0.235
-0.340
-0.435
-0.515
-0.575
-0.615
-0.630
-0.625
-0.595
-0.550
-0.490
-0.425
-0.355
-0.295
-0.240
-0.195
-0.160
-0.135
-0.115
-0.100
-0.090
-0.080
-0.070
-0.060
-0.050
-0.045
-0.040
-0.040
-0.035
-0.035
-0.035
-0.030
-0.025
-0.015
0.000
0.015
0.025
0.040
0.045
0.050
0.045
0.040
0.030
0.015
0.005
-0.010
-0.015
-0.020
-0.020
-0.015
-0.005
0.000
0.010
0.015
0.020
0.025
0.030
0.035
0.040
0.050
0.060
0.065
0.075
0.075
0.075
0.070
0.065
0.055
0.050
0.050
0.055
0.060
0.070
0.085
0.095
0.105
0.110
0.110
0.110
0.105
0.105
0.105
0.105
0.115
0.125
0.135
0.145
0.155
0.160
0.160
0.155
0.150
0.145
0.145
0.145
0.150
0.165
0.180
0.195
0.215
0.235
0.245
0.255
0.260
0.265
0.260
0.260
0.260
0.260
0.260
0.265
0.270
0.275
0.280
0.285
0.290
0.295
0.300
0.305
0.310
0.320
0.330
0.340
0.355
0.370
0.380
0.385
0.390
0.390
0.380
0.365
0.350
0.330
0.310
0.295
0.280
0.270
0.265
0.260
0.260
0.250
0.240
0.230
0.210
0.190
0.170
0.155
0.140
0.125
0.115
0.110
0.100
0.090
0.080
0.065
0.050
0.035
0.020
0.010
0.000
0.000
0.000
0.005
0.015
0.020
0.025
0.030
0.030
0.030
0.020
0.010
0.000
-0.015
-0.030
-0.040
-0.050
-0.055
-0.050
-0.050
-0.045
-0.035
-0.030
-0.030
-0.030
-0.035
-0.040
-0.045
-0.050
-0.050
-0.045
-0.040
-0.030
-0.020
-0.010
-0.005
-0.005
-0.005
-0.010
-0.010
-0.015
-0.020
-0.025
-0.020
-0.020
-0.015
-0.010
0.000
0.005
0.010
0.015
0.015
0.015
0.010
0.000
-0.010
-0.015
-0.025
-0.025
-0.025
-0.015
-0.005
0.010
0.020
0.030
0.035
0.035
0.030
0.025
0.015
0.010
0.005
0.010
0.010
0.015
0.020
0.020
0.010
0.000
-0.015
-0.035
-0.050
-0.060
-0.065
-0.060
-0.050
-0.035
-0.015
0.000
0.010
0.015
0.015
0.010
0.000
-0.015
-0.025
-0.035
-0.040
-0.040
-0.040
-0.040
-0.040
-0.035
-0.035
-0.035
-0.035
-0.035
-0.035
-0.035
-0.035
-0.035
-0.030
-0.025
-0.025
-0.020
-0.015
-0.010
-0.010
-0.010
-0.015
-0.020
-0.030
-0.040
-0.050
-0.060
-0.070
-0.070
-0.070
-0.065
-0.060
-0.050
-0.040
-0.030
-0.025
-0.025
-0.025
-0.030
-0.040
-0.050
-0.060
-0.070
-0.075
-0.080
-0.080
-0.080
-0.075
-0.070
-0.070
-0.065
-0.065
-0.060
-0.060
-0.055
-0.055
-0.050
-0.045
-0.040
-0.035
-0.030
-0.025
-0.030
-0.030
-0.035
-0.040
-0.045
-0.050
-0.055
-0.055
-0.055
-0.060
-0.060
-0.060
-0.060
-0.060
-0.060
-0.065
-0.065
-0.065
-0.065
-0.065
-0.060
-0.060
-0.055
-0.055
-0.055
-0.060
-0.065
-0.070
-0.075
-0.080
-0.075
-0.075
-0.065
-0.060
-0.050
-0.050
-0.050
-0.055
-0.070
-0.085
-0.100
-0.115
-0.130
-0.135
-0.135
-0.130
-0.120
-0.105
-0.090
-0.070
-0.055
-0.045
-0.035
-0.035
-0.035
-0.040
-0.050
-0.065
-0.080
-0.095
-0.110
-0.115
-0.120
-0.115
-0.110
-0.100
-0.090
-0.080
-0.075
-0.070
-0.070
-0.075
-0.075
-0.075
-0.075
-0.070
-0.070
-0.065
-0.060
-0.060
-0.065
-0.070
-0.075
-0.080
-0.085
-0.090
-0.090
-0.090
-0.095
-0.095
-0.100
-0.105
-0.110
-0.115
-0.120
-0.120
-0.115
-0.110
-0.110
-0.105
-0.105
-0.105
-0.105
-0.105
-0.100
-0.095
-0.085
-0.075
-0.070
-0.065
-0.065
-0.070
-0.080
-0.090
-0.100
-0.105
-0.105
-0.100
-0.090
-0.075
-0.060
-0.055
-0.055
-0.060
-0.075
-0.090
-0.105
-0.120
-0.125
-0.120
-0.115
-0.100
-0.080
-0.065
-0.055
-0.050
-0.050
-0.055
-0.065
-0.080
-0.090
-0.100
-0.110
-0.115
-0.115
-0.115
-0.115
-0.115
-0.115
-0.110
-0.105
-0.100
-0.085
-0.075
-0.060
-0.045
-0.030
-0.020
-0.020
-0.020
-0.030
-0.040
-0.050
-0.060
-0.070
-0.075
-0.075
-0.070
-0.065
-0.060
-0.055
-0.050
-0.055
-0.055
-0.065
-0.070
-0.075
-0.080
-0.080
-0.080
-0.080
-0.080
-0.080
-0.085
-0.085
-0.085
-0.090
-0.090
-0.095
-0.095
-0.095
-0.095
-0.095
-0.095
-0.095
-0.095
-0.095
-0.090
-0.080
-0.070
-0.060
-0.050
-0.040
-0.030
-0.020
-0.010
0.005
0.020
0.040
0.065
0.090
0.110
0.125
0.130
0.120
0.100
0.065
0.015
-0.040
-0.100
-0.160
-0.220
-0.280
-0.330
-0.380
-0.425
-0.460
-0.495
-0.515
-0.520
-0.515
-0.490
-0.450
-0.400
-0.340
-0.280
-0.220
-0.175
-0.135
-0.115
-0.105
-0.100
-0.105
-0.110
-0.115
-0.115
-0.110
-0.100
-0.085
-0.075
-0.060
-0.045
-0.035
-0.025
-0.015
-0.005
0.000
0.005
0.010
0.015
0.015
0.010
0.005
0.000
-0.010
-0.020
-0.025
-0.030
-0.030
-0.020
-0.010
0.010
0.030
0.050
0.065
0.075
0.080
0.080
0.070
0.060
0.045
0.030
0.025
0.020
0.020
0.020
0.030
0.035
0.045
0.055
0.060
0.060
0.060
0.060
0.060
0.060
0.065
0.070
0.075
0.090
0.100
0.115
0.130
0.140
0.150
0.150
0.140
0.130
0.115
0.095
0.085
0.075
0.080
0.090
0.105
0.130
0.160
0.185
0.210
0.230
0.240
0.250
0.250
0.255
0.255
0.255
0.255
0.260
0.260
0.265
0.265
0.260
0.260
0.260
0.260
0.265
0.270
0.280
0.290
0.305
0.320
0.330
0.335
0.340
0.340
0.335
0.325
0.315
0.305
0.300
0.290
0.285
0.275
0.270
0.265
0.260
0.250
0.240
0.235
0.220
0.210
0.200
0.190
0.185
0.175
0.170
0.170
0.165
0.165
0.160
0.155
0.150
0.135
0.125
0.105
0.090
0.070
0.055
0.045
0.035
0.030
0.025
0.025
0.025
0.025
0.025
0.020
0.015
0.010
0.005
0.000
-0.005
-0.015
-0.020
-0.025
-0.025
-0.030
-0.035
-0.035
-0.035
-0.035
-0.035
-0.030
-0.030
-0.030
-0.025
-0.025
-0.025
-0.025
-0.025
-0.025
-0.025
-0.025
-0.025
-0.025
-0.025
-0.025
-0.025
-0.020
-0.015
-0.010
-0.005
0.000
0.005
0.005
0.000
0.000
-0.005
-0.010
-0.010
-0.010
-0.005
0.000
0.010
0.015
0.020
0.025
0.020
0.015
0.005
-0.005
-0.010
-0.010
-0.005
0.005
0.015
0.020
0.030
0.030
0.025
0.015
0.005
-0.005
-0.015
-0.015
-0.015
-0.010
0.000
0.005
0.015
0.020
0.020
0.015
0.015
0.010
0.010
0.015
0.020
0.020
0.025
0.025
0.015
0.005
-0.005
-0.020
-0.030
-0.035
-0.030
-0.025
-0.010
0.005
0.020
0.030
0.030
0.025
0.010
-0.005
-0.025
-0.040
-0.055
-0.055
-0.050
-0.040
-0.025
-0.005
0.005
0.015
0.020
0.015
0.005
-0.005
-0.020
-0.035
-0.040
-0.045
-0.045
-0.045
-0.040
-0.040
-0.035
-0.035
-0.035
-0.035
-0.035
-0.035
-0.030
-0.025
-0.020
-0.010
-0.005
0.000
0.000
0.000
-0.010
-0.015
-0.025
-0.035
-0.040
-0.045
-0.045
-0.040
-0.035
-0.030
-0.025
-0.025
-0.025
-0.030
-0.035
-0.040
-0.040
-0.040
-0.035
-0.025
-0.015
-0.005
0.005
0.010
0.010
0.010
0.005
-0.005
-0.010
-0.015
-0.020
-0.020
-0.015
-0.015
-0.010
-0.010
-0.015
-0.015
-0.025
-0.030
-0.035
-0.040
-0.040
-0.040
-0.040
-0.035
-0.035
-0.030
-0.030
-0.025
-0.025
-0.025
-0.020
-0.015
-0.010
-0.005
0.000
0.005
0.005
0.005
0.005
-0.005
-0.010
-0.015
-0.020
-0.025
-0.025
-0.025
-0.025
-0.020
-0.020
-0.020
-0.025
-0.030
-0.035
-0.040
-0.045
-0.045
-0.040
-0.030
-0.020
-0.010
0.000
0.010
0.015
0.020
0.015
0.010
0.005
0.000
-0.005
-0.010
-0.015
-0.015
-0.020
-0.020
-0.025
-0.035
-0.040
-0.045
-0.050
-0.045
-0.040
-0.035
-0.025
-0.015
0.000
0.005
0.015
0.015
0.020
0.020
0.020
0.020
0.020
0.015
0.015
0.010
0.000
-0.005
-0.005
-0.005
-0.005
0.000
0.005
0.010
0.015
0.015
0.015
0.010
0.005
0.000
-0.010
-0.010
-0.015
-0.015
-0.015
-0.015
-0.020
-0.020
-0.025
-0.030
-0.030
-0.030
-0.025
-0.025
-0.025
-0.030
-0.040
-0.050
-0.065
-0.075
-0.085
-0.090
-0.085
-0.070
-0.055
-0.040
-0.025
-0.015
-0.010
-0.015
-0.015
-0.015
-0.010
0.005
0.030
0.065
0.100
0.140
0.175
0.205
0.215
0.215
0.195
0.165
0.120
0.065
0.005
-0.060
-0.130
-0.200
-0.270
-0.335
-0.395
-0.445
-0.485
-0.510
-0.520
-0.515
-0.490
-0.450
-0.400
-0.345
-0.290
-0.235
-0.190
-0.155
-0.130
-0.110
-0.100
-0.090
-0.085
-0.075
-0.065
-0.055
-0.045
-0.040
-0.030
-0.030
-0.025
-0.020
-0.020
-0.010
0.000
0.010
0.020
0.030
0.035
0.035
0.030
0.020
0.010
0.005
0.000
0.000
0.005
0.015
0.025
0.035
0.040
0.040
0.040
0.040
0.035
0.030
0.030
0.030
0.035
0.035
0.040
0.040
0.035
0.030
0.020
0.015
0.010
0.010
0.020
0.035
0.050
0.070
0.085
0.095
0.105
0.105
0.105
0.100
0.095
0.090
0.090
0.090
0.095
0.095
0.100
0.105
0.105
0.105
0.105
0.100
0.105
0.110
0.120
0.135
0.150
0.165
0.175
0.185
0.195
0.195
0.195
0.195
0.190
0.190
0.190
0.195
0.200
0.210
0.215
0.220
0.225
0.230
0.235
0.240
0.245
0.250
0.255
0.265
0.280
0.290
0.305
0.315
0.330
0.340
0.350
0.355
0.355
0.355
0.355
0.345
0.335
0.320
0.300
0.285
0.270
0.255
0.245
0.240
0.235
0.230
0.225
0.225
0.220
0.210
0.200
0.195
0.180
0.170
0.160
0.145
0.130
0.110
0.095
0.075
0.060
0.045
0.030
0.020
0.015
0.015
0.015
0.020
0.020
0.025
0.030
0.030
0.025
0.025
0.020
0.010
0.005
-0.005
-0.015
-0.025
-0.030
-0.035
-0.040
-0.040
-0.040
-0.035
-0.030
-0.030
-0.025
-0.030
-0.030
-0.035
-0.045
-0.050
-0.055
-0.055
-0.050
-0.040
-0.030
-0.015
-0.005
0.005
0.010
0.005
0.000
-0.010
-0.025
-0.035
-0.045
-0.045
-0.040
-0.035
-0.025
-0.015
-0.005
-0.005
-0.010
-0.015
-0.025
-0.040
-0.045
-0.045
-0.040
-0.030
-0.015
0.000
0.015
0.025
0.030
0.025
0.015
0.005
-0.005
-0.015
-0.025
-0.025
-0.025
-0.025
-0.025
-0.025
-0.030
-0.040
-0.050
-0.055
-0.065
-0.065
-0.060
-0.050
-0.035
-0.015
0.000
0.020
0.030
0.040
0.045
0.045
0.045
0.040
0.040
0.040
0.035
0.030
0.025
0.015
0.005
-0.010
-0.020
-0.030
-0.040
-0.040
-0.035
-0.035
-0.030
-0.025
-0.025
-0.030
-0.035
-0.045
-0.050
-0.055
-0.050
-0.045
-0.035
-0.025
-0.020
-0.020
-0.025
-0.035
-0.050
-0.060
-0.070
-0.075
-0.070
-0.065
-0.050
-0.040
-0.035
-0.035
-0.040
-0.050
-0.065
-0.080
-0.090
-0.095
-0.090
-0.080
-0.070
-0.050
-0.035
-0.025
-0.020
-0.015
-0.020
-0.020
-0.025
-0.025
-0.025
-0.025
-0.025
-0.030
-0.035
-0.040
-0.045
-0.055
-0.060
-0.065
-0.065
-0.065
-0.060
-0.060
-0.060
-0.060
-0.065
-0.070
-0.080
-0.085
-0.090
-0.090
-0.090
-0.080
-0.070
-0.060
-0.050
-0.040
-0.035
-0.035
-0.035
-0.040
-0.045
-0.050
-0.055
-0.060
-0.065
-0.065
-0.070
-0.070
-0.070
-0.070
-0.070
-0.070
-0.070
-0.070
-0.070
-0.070
-0.070
-0.065
-0.065
-0.065
-0.060
-0.055
-0.055
-0.050
-0.050
-0.045
-0.045
-0.050
-0.050
-0.055
-0.055
-0.060
-0.060
-0.065
-0.065
-0.065
-0.065
-0.065
-0.065
-0.060
-0.060
-0.060
-0.060
-0.060
-0.060
-0.060
-0.060
-0.055
-0.055
-0.050
-0.050
-0.050
-0.055
-0.060
-0.070
-0.075
-0.085
-0.090
-0.090
-0.085
-0.075
-0.065
-0.060
-0.055
-0.055
-0.060
-0.070
-0.080
-0.090
-0.095
-0.095
-0.085
-0.070
-0.050
-0.030
-0.020
-0.015
-0.020
-0.030
-0.050
-0.070
-0.090
-0.100
-0.105
-0.105
-0.095
-0.080
-0.065
-0.050
-0.040
-0.035
-0.030
-0.030
-0.030
-0.035
-0.040
-0.045
-0.055
-0.060
-0.070
-0.075
-0.080
-0.080
-0.075
-0.065
-0.055
-0.040
-0.035
-0.025
-0.025
-0.030
-0.035
-0.045
-0.055
-0.060
-0.070
-0.070
-0.075
-0.080
-0.085
-0.095
-0.105
-0.120
-0.130
-0.140
-0.140
-0.135
-0.125
-0.110
-0.090
-0.065
-0.045
-0.025
-0.010
0.000
0.000
0.000
-0.005
-0.015
-0.030
-0.045
-0.065
-0.080
-0.095
-0.100
-0.105
-0.100
-0.085
-0.070
-0.050
-0.030
-0.015
0.000
0.005
0.010
0.010
0.005
-0.005
-0.010
-0.020
-0.020
-0.025
-0.020
-0.020
-0.015
-0.005
0.000
0.005
0.010
0.010
0.010
0.005
-0.005
-0.015
-0.025
-0.040
-0.050
-0.060
-0.065
-0.070
-0.070
-0.075
-0.075
-0.075
-0.080
-0.085
-0.085
-0.085
-0.085
-0.085
-0.080
-0.075
-0.075
-0.070
-0.070
-0.070
-0.070
-0.070
-0.070
-0.065
-0.055
-0.040
-0.015
0.010
0.045
0.080
0.115
0.145
0.175
0.200
0.215
0.220
0.210
0.185
0.145
0.090
0.020
-0.065
-0.155
-0.250
-0.340
-0.420
-0.490
-0.540
-0.570
-0.580
-0.570
-0.540
-0.495
-0.445
-0.390
-0.335
-0.280
-0.235
-0.200
-0.170
-0.150
-0.130
-0.115
-0.100
-0.085
-0.075
-0.065
-0.055
-0.045
-0.045
-0.045
-0.050
-0.055
-0.060
-0.065
-0.065
-0.060
-0.055
-0.050
-0.040
-0.025
-0.010
0.000
0.010
0.020
0.025
0.025
0.020
0.015
0.000
-0.015
-0.025
-0.035
-0.035
-0.030
-0.015
0.005
0.025
0.045
0.055
0.065
0.060
0.055
0.045
0.030
0.025
0.020
0.020
0.025
0.030
0.035
0.035
0.030
0.025
0.020
0.015
0.015
0.025
0.035
0.055
0.070
0.090
0.100
0.105
0.105
0.100
0.090
0.085
0.085
0.090
0.100
0.110
0.120
0.130
0.140
0.140
0.145
0.140
0.140
0.140
0.145
0.145
0.155
0.160
0.165
0.175
0.185
0.195
0.205
0.220
0.230
0.245
0.255
0.260
0.265
0.265
0.265
0.265
0.265
0.275
0.280
0.295
0.310
0.320
0.330
0.335
0.335
0.325
0.320
0.310
0.300
0.295
0.295
0.290
0.295
0.295
0.295
0.290
0.285
0.280
0.275
0.265
0.260
0.250
0.240
0.230
0.215
0.200
0.180
0.160
0.140
0.120
0.105
0.090
0.080
0.075
0.070
0.060
0.055
0.045
0.030
0.020
0.010
0.000
-0.005
-0.005
-0.005
0.005
0.010
0.015
0.015
0.010
0.005
-0.010
-0.020
-0.030
-0.040
-0.045
-0.040
-0.035
-0.020
-0.010
0.005
0.010
0.015
0.010
0.005
0.000
-0.010
-0.015
-0.025
-0.025
-0.030
-0.030
-0.030
-0.035
-0.040
-0.040
-0.040
-0.040
-0.035
-0.025
-0.015
-0.005
0.010
0.020
0.025
0.025
0.020
0.010
0.005
0.000
-0.005
-0.005
0.000
0.005
0.015
0.015
0.015
0.010
0.000
-0.010
-0.025
-0.035
-0.040
-0.040
-0.030
-0.020
-0.005
0.010
0.025
0.030
0.035
0.035
0.030
0.020
0.015
0.010
0.010
0.015
0.020
0.025
0.030
0.030
0.025
0.015
0.000
-0.010
-0.025
-0.035
-0.035
-0.030
-0.020
0.000
0.020
0.040
0.055
0.065
0.070
0.065
0.055
0.040
0.020
0.005
-0.010
-0.020
-0.025
-0.025
-0.025
-0.020
-0.020
-0.015
-0.015
-0.020
-0.020
-0.020
-0.020
-0.020
-0.015
-0.010
0.000
0.005
0.010
0.015
0.010
0.005
0.000
-0.005
-0.015
-0.020
-0.020
-0.025
-0.025
-0.020
-0.020
-0.020
-0.025
-0.025
-0.030
-0.030
-0.030
-0.030
-0.030
-0.025
-0.025
-0.020
-0.020
-0.020
-0.020
-0.020
-0.020
-0.020
-0.015
-0.010
-0.010
-0.005
-0.005
-0.005
-0.005
-0.005
-0.005
-0.005
-0.005
-0.005
-0.005
-0.015
-0.020
-0.030
-0.040
-0.050
-0.055
-0.055
-0.050
-0.040
-0.030
-0.020
-0.015
-0.015
-0.020
-0.030
-0.040
-0.050
-0.055
-0.055
-0.050
-0.035
-0.020
-0.005
0.005
0.015
0.015
0.015
0.005
0.000
-0.005
-0.010
-0.015
-0.015
-0.015
-0.020
-0.020
-0.030
-0.035
-0.045
-0.050
-0.055
-0.055
-0.050
-0.045
-0.040
-0.035
-0.030
-0.030
-0.030
-0.035
-0.045
-0.050
-0.055
-0.055
-0.055
-0.050
-0.045
-0.035
-0.025
-0.020
-0.020
-0.020
-0.020
-0.020
-0.025
-0.025
-0.025
-0.025
-0.025
-0.025
-0.025
-0.025
-0.030
-0.035
-0.040
-0.045
-0.045
-0.040
-0.035
-0.025
-0.020
-0.015
-0.010
-0.010
-0.015
-0.020
-0.030
-0.040
-0.045
-0.050
-0.055
-0.055
-0.060
-0.060
-0.055
-0.055
-0.050
-0.040
-0.030
-0.020
-0.010
-0.005
0.000
0.000
-0.005
-0.015
-0.030
-0.040
-0.050
-0.055
-0.055
-0.050
-0.040
-0.030
-0.020
-0.015
-0.010
-0.010
-0.015
-0.025
-0.030
-0.035
-0.040
-0.045
-0.050
-0.050
-0.050
-0.050
-0.045
-0.045
-0.040
-0.030
-0.020
-0.015
-0.005
0.000
0.000
-0.005
-0.010
-0.020
-0.030
-0.040
-0.040
-0.030
-0.015
0.000
0.020
0.040
0.050
0.055
0.050
0.040
0.020
0.000
-0.015
-0.025
-0.030
-0.025
-0.015
0.000
0.010
0.020
0.025
0.025
0.020
0.010
-0.005
-0.020
-0.035
-0.050
-0.060
-0.065
-0.070
-0.070
-0.065
-0.055
-0.040
-0.030
-0.015
-0.005
-0.005
-0.005
-0.015
-0.025
-0.040
-0.055
-0.065
-0.065
-0.065
-0.060
-0.050
-0.035
-0.020
-0.010
0.005
0.015
0.030
0.045
0.065
0.085
0.110
0.135
0.160
0.180
0.185
0.185
0.170
0.145
0.105
0.055
-0.005
-0.075
-0.145
-0.220
-0.290
-0.355
-0.415
-0.465
-0.495
-0.515
-0.520
-0.510
-0.485
-0.455
-0.415
-0.370
-0.320
-0.275
-0.235
-0.195
-0.165
-0.140
-0.125
-0.115
-0.105
-0.100
-0.095
-0.085
-0.075
-0.065
-0.050
-0.035
-0.015
0.000
0.015
0.025
0.030
0.030
0.030
0.020
0.010
0.000
-0.010
-0.010
-0.010
-0.005
0.010
0.020
0.030
0.040
0.045
0.040
0.035
0.030
0.025
0.020
0.020
0.025
0.030
0.040
0.045
0.055
0.060
0.060
0.055
0.050
0.045
0.045
0.045
0.045
0.050
0.060
0.070
0.080
0.090
0.095
0.100
0.105
0.100
0.095
0.085
0.075
0.065
0.065
0.065
0.070
0.085
0.100
0.125
0.145
0.170
0.185
0.190
0.195
0.190
0.185
0.175
0.170
0.170
0.170
0.175
0.185
0.200
0.210
0.225
0.240
0.250
0.260
0.270
0.280
0.285
0.290
0.295
0.295
0.300
0.300
0.300
0.300
0.300
0.305
0.305
0.305
0.310
0.310
0.320
0.325
0.340
0.350
0.365
0.375
0.385
0.385
0.380
0.370
0.355
0.335
0.320
0.305
0.295
0.290
0.285
0.285
0.280
0.275
0.260
0.245
0.225
0.205
0.185
0.170
0.155
0.145
0.135
0.125
0.115
0.100
0.080
0.065
0.045
0.035
0.030
0.030
0.030
0.040
0.045
0.045
0.040
0.025
0.005
-0.015
-0.040
-0.060
-0.080
-0.085
-0.085
-0.080
-0.065
-0.045
-0.025
-0.005
0.010
0.020
0.025
0.020
0.010
0.000
-0.020
-0.035
-0.045
-0.055
-0.060
-0.065
-0.060
-0.060
-0.055
-0.055
-0.055
-0.060
-0.065
-0.070
-0.070
-0.070
-0.065
-0.055
-0.050
-0.040
-0.035
-0.030
-0.035
-0.035
-0.040
-0.040
-0.040
-0.035
-0.030
-0.025
-0.015
-0.010
-0.010
-0.015
-0.020
-0.025
-0.030
-0.035
-0.035
-0.030
-0.025
-0.020
-0.010
-0.010
-0.010
-0.015
-0.025
-0.035
-0.050
-0.060
-0.065
-0.070
-0.075
-0.075
-0.075
-0.080
-0.080
-0.085
-0.085
-0.085
-0.085
-0.080
-0.070
-0.060
-0.045
-0.030
-0.020
-0.010
0.000
0.000
0.000
0.000
-0.010
-0.015
-0.025
-0.035
-0.040
-0.050
-0.055
-0.055
-0.055
-0.055
-0.055
-0.050
-0.050
-0.050
-0.055
-0.055
-0.060
-0.065
-0.065
-0.070
-0.070
-0.070
-0.070
-0.070
-0.065
-0.065
-0.060
-0.060
-0.060
-0.060
-0.065
-0.070
-0.080
-0.090
-0.105
-0.115
-0.125
-0.130
-0.130
-0.125
-0.115
-0.100
-0.080
-0.065
-0.050
-0.045
-0.040
-0.040
-0.050
-0.060
-0.070
-0.080
-0.085
-0.090
-0.090
-0.085
-0.080
-0.075
-0.065
-0.060
-0.055
-0.050
-0.045
-0.045
-0.045
-0.050
-0.050
-0.055
-0.060
-0.065
-0.065
-0.070
-0.070
-0.065
-0.065
-0.060
-0.060
-0.060
-0.065
-0.070
-0.080
-0.090
-0.100
-0.105
-0.110
-0.110
-0.110
-0.105
-0.095
-0.090
-0.080
-0.075
-0.070
-0.060
-0.055
-0.050
-0.045
-0.045
-0.045
-0.050
-0.060
-0.075
-0.090
-0.105
-0.110
-0.115
-0.110
-0.095
-0.075
-0.055
-0.035
-0.020
-0.015
-0.020
-0.030
-0.045
-0.060
-0.075
-0.085
-0.090
-0.085
-0.075
-0.065
-0.055
-0.050
-0.050
-0.055
-0.060
-0.075
-0.085
-0.095
-0.095
-0.090
-0.085
-0.070
-0.055
-0.045
-0.040
-0.035
-0.040
-0.050
-0.065
-0.075
-0.080
-0.085
-0.085
-0.080
-0.075
-0.070
-0.065
-0.065
-0.070
-0.075
-0.080
-0.090
-0.095
-0.095
-0.090
-0.080
-0.075
-0.065
-0.055
-0.050
-0.045
-0.045
-0.045
-0.045
-0.045
-0.050
-0.050
-0.050
-0.055
-0.055
-0.060
-0.060
-0.065
-0.065
-0.070
-0.070
-0.070
-0.070
-0.075
-0.075
-0.075
-0.075
-0.075
-0.075
-0.070
-0.070
-0.065
-0.065
-0.065
-0.070
-0.070
-0.075
-0.075
-0.075
-0.070
-0.060
-0.050
-0.035
-0.030
-0.025
-0.030
-0.040
-0.060
-0.075
-0.095
-0.105
-0.115
-0.115
-0.105
-0.090
-0.070
-0.050
-0.035
-0.015
0.000
0.010
0.015
0.020
0.020
0.020
0.015
0.010
0.005
0.000
-0.005
-0.005
-0.005
-0.005
0.005
0.010
0.015
0.020
0.025
0.020
0.010
0.000
-0.015
-0.025
-0.030
-0.035
-0.035
-0.035
-0.030
-0.030
-0.035
-0.040
-0.050
-0.060
-0.065
-0.070
-0.070
-0.060
-0.050
-0.035
-0.025
-0.020
-0.020
-0.030
-0.040
-0.060
-0.075
-0.080
-0.080
-0.070
-0.050
-0.015
0.020
0.065
0.105
0.145
0.180
0.210
0.235
0.245
0.250
0.240
0.215
0.175
0.115
0.045
-0.035
-0.120
-0.200
-0.280
-0.350
-0.405
-0.445
-0.470
-0.475
-0.470
-0.455
-0.430
-0.390
-0.345
-0.300
-0.245
-0.200
-0.155
-0.120
-0.095
-0.080
-0.075
-0.080
-0.080
-0.085
-0.080
-0.075
-0.065
-0.050
-0.030
-0.020
-0.010
-0.005
-0.005
-0.010
-0.010
-0.010
-0.005
0.000
0.015
0.030
0.045
0.060
0.065
0.065
0.060
0.050
0.035
0.025
0.015
0.005
0.005
0.010
0.020
0.035
0.045
0.055
0.060
0.060
0.060
0.055
0.050
0.050
0.050
0.055
0.065
0.075
0.080
0.085
0.090
0.090
0.085
0.080
0.080
0.080
0.085
0.090
0.100
0.110
0.115
0.115
0.110
0.105
0.100
0.095
0.095
0.100
0.110
0.120
0.135
0.140
0.145
0.140
0.135
0.125
0.120
0.120
0.125
0.140
0.160
0.185
0.215
0.235
0.255
0.265
0.265
0.265
0.265
0.260
0.260
0.265
0.270
0.275
0.285
0.295
0.300
0.305
0.305
0.305
0.310
0.310
0.315
0.320
0.325
0.330
0.335
0.335
0.330
0.330
0.325
0.325
0.320
0.320
0.315
0.310
0.305
0.300
0.290
0.280
0.265
0.255
0.240
0.225
0.215
0.200
0.190
0.175
0.165
0.155
0.145
0.135
0.130
0.120
0.110
0.105
0.095
0.085
0.070
0.060
0.050
0.045
0.040
0.040
0.040
0.040
0.040
0.035
0.030
0.020
0.015
0.005
-0.005
-0.010
-0.010
-0.010
-0.005
-0.005
0.000
0.000
0.000
-0.005
-0.010
-0.010
-0.015
-0.020
-0.020
-0.020
-0.020
-0.025
-0.025
-0.025
-0.025
-0.025
-0.025
-0.020
-0.015
-0.010
-0.010
-0.010
-0.015
-0.020
-0.025
-0.030
-0.030
-0.025
-0.015
-0.005
0.005
0.015
0.020
0.020
0.015
0.005
-0.010
-0.025
-0.035
-0.045
-0.050
-0.050
-0.045
-0.040
-0.025
-0.015
0.000
0.010
0.025
0.035
0.045
0.050
0.050
0.040
0.030
0.020
0.005
-0.005
-0.010
-0.010
-0.005
0.005
0.020
0.030
0.040
0.040
0.035
0.025
0.010
-0.010
-0.025
-0.035
-0.035
-0.035
-0.025
-0.010
0.005
0.015
0.025
0.025
0.025
0.020
0.010
0.005
0.000
-0.005
-0.005
-0.005
-0.005
-0.005
0.000
-0.005
-0.005
-0.010
-0.015
-0.020
-0.020
-0.020
-0.020
-0.015
-0.015
-0.010
-0.015
-0.015
-0.025
-0.035
-0.050
-0.060
-0.065
-0.070
-0.065
-0.060
-0.050
-0.035
-0.025
-0.015
-0.010
-0.005
-0.010
-0.015
-0.020
-0.025
-0.030
-0.030
-0.035
-0.040
-0.050
-0.055
-0.060
-0.065
-0.065
-0.055
-0.045
-0.030
-0.015
0.000
0.015
0.020
0.020
0.010
0.000
-0.010
-0.020
-0.030
-0.035
-0.035
-0.030
-0.025
-0.015
-0.010
0.000
0.005
0.005
0.005
0.005
0.000
-0.010
-0.020
-0.030
-0.045
-0.060
-0.070
-0.075
-0.080
-0.075
-0.070
-0.065
-0.060
-0.055
-0.050
-0.050
-0.055
-0.060
-0.065
-0.070
-0.070
-0.070
-0.070
-0.065
-0.060
-0.055
-0.050
-0.050
-0.050
-0.055
-0.055
-0.055
-0.055
-0.055
-0.050
-0.050
-0.045
-0.040
-0.035
-0.030
-0.025
-0.025
-0.025
-0.030
-0.030
-0.035
-0.035
-0.035
-0.030
-0.030
-0.025
-0.020
-0.015
-0.020
-0.025
-0.035
-0.045
-0.060
-0.065
-0.070
-0.070
-0.060
-0.050
-0.040
-0.030
-0.025
-0.030
-0.035
-0.050
-0.065
-0.075
-0.085
-0.090
-0.085
-0.080
-0.065
-0.055
-0.050
-0.045
-0.040
-0.040
-0.045
-0.050
-0.050
-0.055
-0.055
-0.055
-0.060
-0.060
-0.060
-0.065
-0.065
-0.065
-0.060
-0.055
-0.045
-0.040
-0.035
-0.035
-0.040
-0.045
-0.055
-0.060
-0.065
-0.060
-0.055
-0.045
-0.035
-0.020
-0.010
-0.005
0.000
-0.005
-0.015
-0.030
-0.045
-0.055
-0.065
-0.070
-0.070
-0.065
-0.055
-0.050
-0.040
-0.035
-0.035
-0.040
-0.045
-0.055
-0.060
-0.070
-0.070
-0.070
-0.065
-0.060
-0.050
-0.040
-0.030
-0.025
-0.020
-0.015
-0.015
-0.020
-0.025
-0.030
-0.035
-0.040
-0.045
-0.050
-0.050
-0.055
-0.050
-0.050
-0.045
-0.040
-0.035
-0.030
-0.025
-0.030
-0.035
-0.040
-0.050
-0.060
-0.070
-0.075
-0.080
-0.080
-0.075
-0.070
-0.065
-0.055
-0.050
-0.045
-0.040
-0.040
-0.040
-0.040
-0.045
-0.050
-0.050
-0.055
-0.050
-0.050
-0.045
-0.040
-0.030
-0.025
-0.025
-0.025
-0.030
-0.035
-0.040
-0.045
-0.050
-0.045
-0.040
-0.025
-0.010
0.005
0.020
0.030
0.035
0.030
0.020
0.010
-0.005
-0.020
-0.030
-0.040
-0.045
-0.045
-0.045
-0.040
-0.040
-0.035
-0.035
-0.035
-0.035
-0.040
-0.040
-0.045
-0.045
-0.050
-0.050
-0.050
-0.045
-0.045
-0.045
-0.045
-0.045
-0.045
-0.045
-0.045
-0.045
-0.045
-0.035
-0.020
0.000
0.030
0.060
0.095
0.125
0.155
0.175
0.185
0.185
0.180
0.155
0.125
0.085
0.030
-0.025
-0.090
-0.160
-0.235
-0.305
-0.375
-0.430
-0.480
-0.515
-0.530
-0.530
-0.510
-0.475
-0.430
-0.380
-0.325
-0.270
-0.220
-0.180
-0.150
-0.125
-0.110
-0.100
-0.090
-0.080
-0.070
-0.060
-0.050
-0.040
-0.025
-0.015
-0.010
-0.005
-0.005
-0.005
-0.010
-0.015
-0.025
-0.030
-0.040
-0.045
-0.045
-0.040
-0.030
-0.020
-0.005
0.015
0.030
0.040
0.050
0.050
0.045
0.040
0.030
0.025
0.020
0.020
0.025
0.030
0.040
0.045
0.050
0.050
0.045
0.035
0.030
0.020
0.020
0.025
0.035
0.050
0.065
0.080
0.090
0.100
0.105
0.100
0.100
0.095
0.095
0.100
0.105
0.115
0.125
0.140
0.145
0.150
0.145
0.140
0.125
0.115
0.105
0.100
0.100
0.110
0.130
0.150
0.170
0.185
0.200
0.205
0.205
0.200
0.190
0.185
0.180
0.185
0.195
0.210
0.230
0.250
0.265
0.275
0.280
0.280
0.280
0.280
0.285
0.290
0.305
0.315
0.330
0.340
0.345
0.340
0.335
0.320
0.310
0.300
0.300
0.300
0.300
0.310
0.315
0.320
0.320
0.315
0.310
0.300
0.290
0.275
0.265
0.250
0.240
0.225
0.210
0.190
0.170
0.150
0.135
0.120
0.115
0.105
0.105
0.100
0.095
0.090
0.080
0.070
0.060
0.045
0.040
0.035
0.030
0.030
0.030
0.030
0.025
0.020
0.010
0.000
-0.005
-0.015
-0.020
-0.025
-0.025
-0.025
-0.030
-0.030
-0.035
-0.040
-0.045
-0.050
-0.050
-0.050
-0.045
-0.040
-0.030
-0.015
-0.010
-0.005
-0.005
-0.010
-0.015
-0.030
-0.040
-0.050
-0.060
-0.060
-0.060
-0.050
-0.040
-0.025
-0.015
-0.005
0.000
0.000
0.000
-0.005
-0.005
-0.005
-0.005
0.000
0.005
0.010
0.010
0.010
0.010
0.000
-0.010
-0.020
-0.030
-0.040
-0.040
-0.040
-0.030
-0.015
-0.005
0.010
0.020
0.030
0.030
0.030
0.025
0.020
0.015
0.010
0.005
-0.005
-0.010
-0.020
-0.030
-0.040
-0.050
-0.060
-0.060
-0.060
-0.050
-0.040
-0.025
-0.005
0.010
0.020
0.030
0.030
0.030
0.030
0.025
0.020
0.020
0.015
0.010
0.005
0.000
-0.010
-0.015
-0.025
-0.030
-0.035
-0.030
-0.025
-0.020
-0.010
-0.010
-0.015
-0.025
-0.035
-0.050
-0.065
-0.075
-0.075
-0.065
-0.055
-0.035
-0.020
-0.010
-0.005
-0.005
-0.010
-0.020
-0.030
-0.035
-0.040
-0.040
-0.035
-0.030
-0.030
-0.030
-0.035
-0.045
-0.050
-0.060
-0.060
-0.060
-0.050
-0.040
-0.030
-0.020
-0.015
-0.010
-0.005
-0.005
-0.005
-0.005
-0.005
-0.010
-0.015
-0.025
-0.035
-0.050
-0.060
-0.070
-0.070
-0.065
-0.055
-0.040
-0.025
-0.010
-0.005
0.000
-0.005
-0.015
-0.030
-0.040
-0.050
-0.055
-0.055
-0.050
-0.045
-0.040
-0.040
-0.040
-0.040
-0.045
-0.050
-0.055
-0.055
-0.050
-0.045
-0.040
-0.030
-0.025
-0.020
-0.015
-0.015
-0.015
-0.020
-0.025
-0.035
-0.040
-0.050
-0.055
-0.065
-0.065
-0.065
-0.060
-0.055
-0.050
-0.045
-0.040
-0.040
-0.040
-0.040
-0.045
-0.045
-0.045
-0.040
-0.035
-0.030
-0.025
-0.025
-0.030
-0.040
-0.050
-0.065
-0.075
-0.080
-0.080
-0.075
-0.065
-0.050
-0.035
-0.020
-0.015
-0.015
-0.020
-0.030
-0.045
-0.050
-0.055
-0.060
-0.055
-0.050
-0.045
-0.040
-0.035
-0.040
-0.040
-0.045
-0.045
-0.045
-0.045
-0.045
-0.040
-0.040
-0.040
-0.045
-0.055
-0.060
-0.065
-0.070
-0.070
-0.065
-0.060
-0.055
-0.055
-0.050
-0.050
-0.050
-0.050
-0.050
-0.045
-0.040
-0.030
-0.025
-0.015
-0.015
-0.015
-0.020
-0.030
-0.040
-0.050
-0.060
-0.065
-0.070
-0.070
-0.070
-0.075
-0.075
-0.080
-0.085
-0.085
-0.085
-0.085
-0.080
-0.075
-0.070
-0.065
-0.060
-0.055
-0.050
-0.050
-0.050
-0.050
-0.055
-0.055
-0.060
-0.065
-0.065
-0.065
-0.065
-0.060
-0.050
-0.040
-0.025
-0.015
-0.010
-0.005
-0.005
-0.010
-0.015
-0.025
-0.025
-0.030
-0.025
-0.015
-0.005
0.000
0.010
0.010
0.010
0.000
-0.010
-0.020
-0.030
-0.040
-0.045
-0.045
-0.040
-0.035
-0.030
-0.025
-0.025
-0.030
-0.035
-0.045
-0.055
-0.065
-0.070
-0.070
-0.070
-0.070
-0.065
-0.060
-0.055
-0.055
-0.055
-0.055
-0.050
-0.050
-0.050
-0.050
-0.050
-0.045
-0.050
-0.050
-0.050
-0.050
-0.045
-0.035
-0.020
0.000
0.025
0.050
0.080
0.105
0.120
0.135
0.135
0.130
0.120
0.095
0.065
0.030
-0.020
-0.075
-0.140
-0.205
-0.280
-0.350
-0.415
-0.470
-0.515
-0.540
-0.555
-0.550
-0.530
-0.495
-0.450
-0.400
-0.350
-0.295
-0.240
-0.195
-0.155
-0.120
-0.095
-0.080
-0.075
-0.070
-0.070
-0.075
-0.075
-0.075
-0.070
-0.060
-0.050
-0.040
-0.025
-0.015
-0.005
0.000
0.005
0.010
0.005
0.005
0.000
-0.005
-0.005
-0.005
0.000
0.005
0.010
0.020
0.025
0.035
0.040
0.040
0.040
0.040
0.040
0.035
0.040
0.040
0.045
0.050
0.060
0.065
0.070
0.070
0.070
0.070
0.070
0.070
0.070
0.070
0.075
0.080
0.085
0.090
0.090
0.090
0.090
0.090
0.090
0.095
0.100
0.110
0.120
0.125
0.130
0.130
0.125
0.115
0.100
0.090
0.080
0.080
0.085
0.095
0.110
0.125
0.145
0.155
0.165
0.170
0.170
0.165
0.160
0.160
0.160
0.170
0.180
0.200
0.220
0.240
0.260
0.275
0.290
0.300
0.305
0.310
0.315
0.320
0.325
0.330
0.330
0.335
0.335
0.335
0.330
0.325
0.320
0.315
0.315
0.315
0.315
0.315
0.310
0.305
0.295
0.280
0.260
0.240
0.220
0.210
0.200
0.195
0.195
0.195
0.200
0.200
0.195
0.185
0.170
0.155
0.135
0.115
0.100
0.090
0.080
0.070
0.060
0.045
0.030
0.010
-0.005
-0.025
-0.035
-0.040
-0.045
-0.040
-0.030
-0.020
-0.015
-0.010
-0.005
-0.010
-0.010
-0.015
-0.020
-0.020
-0.025
-0.025
-0.025
-0.030
-0.035
-0.040
-0.045
-0.045
-0.050
-0.045
-0.040
-0.035
-0.030
-0.025
-0.025
-0.030
-0.040
-0.050
-0.060
-0.075
-0.080
-0.085
-0.080
-0.070
-0.055
-0.035
-0.015
0.000
0.010
0.015
0.010
-0.005
-0.020
-0.035
-0.055
-0.065
-0.065
-0.060
-0.050
-0.035
-0.015
0.000
0.015
0.020
0.025
0.020
0.015
0.005
-0.005
-0.010
-0.015
-0.015
-0.015
-0.010
-0.010
0.000
0.005
0.005
0.010
0.010
0.010
0.005
0.000
-0.005
-0.010
-0.015
-0.020
-0.020
-0.020
-0.010
-0.005
0.005
0.015
0.020
0.025
0.030
0.035
0.035
0.030
0.030
0.035
0.035
0.040
0.045
0.055
0.060
0.060
0.055
0.045
0.035
0.015
-0.005
-0.025
-0.045
-0.055
-0.060
-0.055
-0.050
-0.040
-0.025
-0.015
-0.005
0.005
0.005
0.010
0.005
0.005
0.005
0.005
0.005
0.000
-0.005
-0.015
-0.020
-0.030
-0.035
-0.040
-0.040
-0.035
-0.030
-0.020
-0.015
-0.010
-0.010
-0.015
-0.020
-0.020
-0.020
-0.020
-0.015
-0.005
0.000
0.010
0.010
0.010
0.010
0.005
0.000
-0.005
0.000
0.005
0.015
0.025
0.030
0.030
0.025
0.015
0.000
-0.015
-0.030
-0.040
-0.040
-0.040
-0.035
-0.030
-0.030
-0.030
-0.035
-0.040
-0.050
-0.055
-0.055
-0.050
-0.040
-0.030
-0.020
-0.010
-0.010
-0.015
-0.025
-0.035
-0.050
-0.060
-0.065
-0.060
-0.055
-0.050
-0.040
-0.030
-0.020
-0.020
-0.020
-0.020
-0.020
-0.025
-0.025
-0.025
-0.025
-0.025
-0.025
-0.025
-0.020
-0.020
-0.020
-0.025
-0.025
-0.030
-0.040
-0.045
-0.050
-0.050
-0.050
-0.045
-0.035
-0.025
-0.010
0.000
0.010
0.010
0.010
0.005
0.000
-0.010
-0.020
-0.030
-0.035
-0.040
-0.045
-0.045
-0.050
-0.050
-0.050
-0.050
-0.050
-0.050
-0.045
-0.045
-0.040
-0.035
-0.025
-0.025
-0.020
-0.020
-0.025
-0.030
-0.040
-0.050
-0.065
-0.070
-0.080
-0.080
-0.080
-0.075
-0.065
-0.060
-0.050
-0.045
-0.045
-0.040
-0.040
-0.045
-0.045
-0.040
-0.040
-0.035
-0.030
-0.030
-0.030
-0.030
-0.035
-0.040
-0.050
-0.060
-0.065
-0.065
-0.065
-0.060
-0.050
-0.040
-0.025
-0.015
-0.005
0.000
0.000
-0.005
-0.015
-0.025
-0.040
-0.045
-0.055
-0.055
-0.055
-0.050
-0.045
-0.045
-0.040
-0.035
-0.035
-0.035
-0.040
-0.035
-0.035
-0.035
-0.030
-0.030
-0.030
-0.030
-0.030
-0.035
-0.035
-0.035
-0.035
-0.035
-0.030
-0.025
-0.025
-0.025
-0.025
-0.025
-0.030
-0.030
-0.035
-0.035
-0.030
-0.030
-0.025
-0.025
-0.025
-0.030
-0.030
-0.035
-0.040
-0.045
-0.045
-0.045
-0.045
-0.040
-0.040
-0.040
-0.040
-0.040
-0.040
-0.030
-0.020
-0.005
0.005
0.015
0.025
0.025
0.015
0.005
-0.010
-0.025
-0.035
-0.040
-0.035
-0.025
-0.015
0.005
0.015
0.025
0.025
0.025
0.020
0.020
0.015
0.015
0.015
0.020
0.025
0.025
0.020
0.015
0.010
0.000
-0.005
-0.005
-0.005
0.000
0.000
0.000
-0.005
-0.015
-0.035
-0.050
-0.065
-0.080
-0.080
-0.075
-0.060
-0.040
-0.020
-0.005
0.005
0.005
-0.005
-0.020
-0.040
-0.055
-0.065
-0.070
-0.070
-0.060
-0.045
-0.030
-0.010
0.010
0.030
0.050
0.070
0.095
0.125
0.155
0.185
0.210
0.225
0.225
0.205
0.170
0.115
0.040
-0.050
-0.145
-0.240
-0.330
-0.410
-0.475
-0.515
-0.540
-0.545
-0.530
-0.505
-0.470
-0.425
-0.380
-0.335
-0.295
-0.255
-0.220
-0.190
-0.160
-0.140
-0.120
-0.100
-0.090
-0.075
-0.065
-0.055
-0.045
-0.040
-0.040
-0.035
-0.035
-0.035
-0.040
-0.040
-0.040
-0.040
-0.040
-0.040
-0.035
-0.025
-0.020
-0.005
0.005
0.020
0.030
0.045
0.050
0.060
0.065
0.065
0.065
0.060
0.055
0.045
0.035
0.030
0.020
0.015
0.010
0.005
0.000
0.000
0.000
0.000
0.005
0.005
0.015
0.020
0.030
0.035
0.045
0.055
0.065
0.070
0.075
0.075
0.070
0.070
0.065
0.060
0.055
0.055
0.060
0.065
0.070
0.075
0.080
0.080
0.080
0.075
0.075
0.070
0.075
0.080
0.095
0.115
0.140
0.160
0.185
0.200
0.215
0.220
0.220
0.220
0.220
0.215
0.220
0.225
0.230
0.240
0.250
0.260
0.265
0.270
0.270
0.270
0.270
0.275
0.280
0.285
0.295
0.300
0.310
0.320
0.325
0.325
0.325
0.320
0.315
0.315
0.310
0.305
0.305
0.300
0.290
0.285
0.270
0.255
0.235
0.220
0.205
0.195
0.185
0.185
0.190
0.190
0.195
0.195
0.190
0.180
0.160
0.140
0.115
0.095
0.075
0.055
0.045
0.040
0.035
0.035
0.030
0.030
0.020
0.015
0.005
-0.005
-0.010
-0.015
-0.020
-0.020
-0.020
-0.020
-0.020
-0.020
-0.020
-0.020
-0.025
-0.025
-0.025
-0.030
-0.030
-0.035
-0.035
-0.040
-0.045
-0.055
-0.060
-0.065
-0.065
-0.065
-0.060
-0.055
-0.045
-0.035
-0.025
-0.020
-0.020
-0.025
-0.030
-0.035
-0.045
-0.050
-0.050
-0.050
-0.045
-0.035
-0.025
-0.020
-0.015
-0.015
-0.025
-0.035
-0.045
-0.055
-0.065
-0.065
-0.065
-0.055
-0.050
-0.045
-0.040
-0.045
-0.050
-0.055
-0.065
-0.070
-0.070
-0.065
-0.050
-0.030
-0.010
0.005
0.020
0.025
0.025
0.020
0.010
0.000
-0.005
-0.005
-0.005
0.000
0.005
0.010
0.010
0.005
-0.005
-0.015
-0.025
-0.035
-0.045
-0.050
-0.050
-0.045
-0.045
-0.040
-0.035
-0.035
-0.030
-0.025
-0.025
-0.020
-0.015
-0.015
-0.015
-0.020
-0.025
-0.040
-0.050
-0.065
-0.070
-0.075
-0.070
-0.065
-0.050
-0.035
-0.020
-0.010
-0.005
-0.010
-0.025
-0.040
-0.055
-0.070
-0.075
-0.075
-0.070
-0.055
-0.040
-0.025
-0.015
-0.010
-0.015
-0.020
-0.035
-0.045
-0.060
-0.065
-0.065
-0.060
-0.050
-0.040
-0.035
-0.030
-0.025
-0.025
-0.030
-0.035
-0.040
-0.045
-0.050
-0.050
-0.050
-0.050
-0.045
-0.045
-0.045
-0.045
-0.045
-0.040
-0.040
-0.045
-0.045
-0.055
-0.060
-0.070
-0.080
-0.085
-0.090
-0.090
-0.090
-0.085
-0.075
-0.065
-0.055
-0.045
-0.040
-0.040
-0.040
-0.040
-0.045
-0.055
-0.060
-0.060
-0.065
-0.060
-0.060
-0.050
-0.045
-0.040
-0.035
-0.035
-0.035
-0.040
-0.045
-0.050
-0.055
-0.055
-0.055
-0.050
-0.045
-0.040
-0.035
-0.035
-0.040
-0.050
-0.060
-0.070
-0.080
-0.080
-0.080
-0.075
-0.065
-0.050
-0.040
-0.030
-0.025
-0.020
-0.020
-0.020
-0.020
-0.020
-0.020
-0.025
-0.025
-0.035
-0.040
-0.050
-0.060
-0.065
-0.070
-0.065
-0.060
-0.050
-0.040
-0.025
-0.015
-0.010
-0.005
-0.005
-0.010
-0.010
-0.015
-0.020
-0.025
-0.030
-0.035
-0.040
-0.040
-0.045
-0.045
-0.045
-0.045
-0.040
-0.035
-0.030
-0.025
-0.020
-0.020
-0.015
-0.015
-0.015
-0.015
-0.010
-0.010
-0.010
-0.010
-0.015
-0.020
-0.020
-0.025
-0.025
-0.025
-0.025
-0.025
-0.025
-0.025
-0.025
-0.025
-0.020
-0.020
-0.015
-0.010
-0.005
0.000
0.000
0.000
-0.010
-0.015
-0.025
-0.040
-0.045
-0.050
-0.050
-0.045
-0.040
-0.030
-0.020
-0.015
-0.015
-0.020
-0.025
-0.030
-0.035
-0.040
-0.040
-0.035
-0.025
-0.010
0.000
0.010
0.015
0.015
0.010
-0.005
-0.020
-0.030
-0.040
-0.045
-0.040
-0.030
-0.015
0.000
0.010
0.020
0.020
0.015
0.000
-0.015
-0.030
-0.045
-0.050
-0.055
-0.050
-0.045
-0.040
-0.035
-0.035
-0.035
-0.040
-0.045
-0.045
-0.045
-0.035
-0.025
-0.010
0.005
0.015
0.020
0.020
0.015
0.000
-0.010
-0.025
-0.030
-0.035
-0.035
-0.030
-0.020
-0.010
0.000
0.015
0.020
0.025
0.030
0.025
0.020
0.010
0.000
-0.010
-0.020
-0.025
-0.030
-0.025
-0.015
0.000
0.020
0.035
0.055
0.070
0.075
0.080
0.075
0.065
0.055
0.040
0.025
0.015
0.005
0.000
-0.005
-0.005
0.000
0.000
0.005
0.010
0.010
0.015
0.015
0.010
0.005
0.000
-0.005
-0.010
-0.010
-0.015
-0.015
-0.010
-0.010
-0.005
-0.005
-0.005
-0.010
-0.015
-0.025
-0.035
-0.045
-0.050
-0.055
-0.050
-0.045
-0.030
-0.020
0.000
0.015
0.030
0.045
0.065
0.080
0.100
0.125
0.150
0.175
0.195
0.215
0.220
0.210
0.185
0.150
0.095
0.030
-0.045
-0.120
-0.195
-0.265
-0.330
-0.385
-0.435
-0.470
-0.495
-0.505
-0.505
-0.490
-0.460
-0.420
-0.375
-0.325
-0.270
-0.225
-0.185
-0.150
-0.125
-0.110
-0.095
-0.085
-0.080
-0.070
-0.060
-0.050
-0.040
-0.030
-0.020
-0.010
-0.005
0.000
0.005
0.010
0.010
0.015
0.015
0.010
0.005
-0.005
-0.015
-0.020
-0.025
-0.025
-0.020
-0.010
0.000
0.015
0.025
0.035
0.040
0.035
0.030
0.025
0.020
0.020
0.025
0.030
0.040
0.050
0.055
0.060
0.065
0.060
0.060
0.055
0.050
0.050
0.050
0.050
0.055
0.060
0.070
0.080
0.090
0.105
0.115
0.120
0.125
0.125
0.115
0.100
0.085
0.065
0.050
0.045
0.045
0.060
0.080
0.105
0.130
0.155
0.170
0.175
0.175
0.170
0.170
0.165
0.170
0.175
0.185
0.200
0.210
0.220
0.230
0.235
0.235
0.240
0.250
0.260
0.270
0.285
0.295
0.305
0.310
0.310
0.310
0.305
0.305
0.305
0.310
0.320
0.330
0.340
0.345
0.350
0.345
0.335
0.325
0.310
0.295
0.285
0.275
0.270
0.270
0.275
0.275
0.275
0.275
0.270
0.260
0.245
0.230
0.210
0.195
0.180
0.170
0.160
0.155
0.150
0.145
0.135
0.120
0.105
0.085
0.065
0.050
0.035
0.025
0.015
0.015
0.010
0.010
0.005
0.000
-0.005
-0.010
-0.010
-0.010
-0.010
-0.005
-0.005
-0.005
-0.010
-0.015
-0.025
-0.040
-0.055
-0.065
-0.075
-0.085
-0.085
-0.085
-0.085
-0.080
-0.080
-0.075
-0.075
-0.075
-0.070
-0.065
-0.055
-0.045
-0.035
-0.025
-0.015
-0.005
0.000
0.010
0.010
0.010
0.005
0.000
-0.010
-0.020
-0.030
-0.040
-0.045
-0.045
-0.040
-0.035
-0.025
-0.020
-0.015
-0.015
-0.015
-0.020
-0.025
-0.035
-0.040
-0.045
-0.045
-0.045
-0.050
-0.050
-0.050
-0.055
-0.055
-0.055
-0.050
-0.040
-0.030
-0.015
-0.005
0.010
0.020
0.025
0.025
0.020
0.010
0.000
-0.010
-0.020
-0.025
-0.025
-0.030
-0.025
-0.025
-0.020
-0.020
-0.015
-0.015
-0.015
-0.015
-0.015
-0.015
-0.015
-0.015
-0.020
-0.020
-0.015
-0.015
-0.010
-0.005
-0.005
-0.005
-0.005
-0.015
-0.025
-0.040
-0.055
-0.070
-0.075
-0.075
-0.070
-0.055
-0.040
-0.025
-0.015
-0.005
0.000
0.000
-0.005
-0.010
-0.015
-0.020
-0.025
-0.025
-0.025
-0.025
-0.020
-0.020
-0.015
-0.010
-0.010
-0.010
-0.015
-0.020
-0.030
-0.045
-0.060
-0.070
-0.080
-0.085
-0.085
-0.075
-0.065
-0.050
-0.035
-0.025
-0.015
-0.015
-0.015
-0.025
-0.030
-0.040
-0.045
-0.045
-0.040
-0.035
-0.030
-0.025
-0.020
-0.020
-0.025
-0.025
-0.030
-0.035
-0.040
-0.045
-0.045
-0.050
-0.050
-0.050
-0.050
-0.050
-0.050
-0.050
-0.050
-0.055
-0.060
-0.060
-0.060
-0.060
-0.060
-0.055
-0.045
-0.040
-0.035
-0.030
-0.025
-0.030
-0.035
-0.040
-0.055
-0.065
-0.075
-0.080
-0.080
-0.075
-0.065
-0.050
-0.035
-0.020
-0.005
0.005
0.005
0.000
-0.005
-0.020
-0.035
-0.055
-0.070
-0.085
-0.095
-0.100
-0.100
-0.095
-0.085
-0.080
-0.070
-0.060
-0.055
-0.050
-0.050
-0.045
-0.045
-0.050
-0.050
-0.050
-0.050
-0.050
-0.050
-0.050
-0.055
-0.060
-0.065
-0.075
-0.080
-0.090
-0.090
-0.090
-0.085
-0.075
-0.065
-0.050
-0.040
-0.030
-0.030
-0.035
-0.040
-0.055
-0.065
-0.080
-0.090
-0.095
-0.095
-0.095
-0.095
-0.090
-0.090
-0.080
-0.075
-0.065
-0.050
-0.040
-0.025
-0.015
-0.010
-0.010
-0.015
-0.025
-0.040
-0.055
-0.070
-0.075
-0.080
-0.075
-0.065
-0.055
-0.045
-0.040
-0.040
-0.045
-0.055
-0.065
-0.080
-0.090
-0.095
-0.095
-0.095
-0.090
-0.080
-0.070
-0.065
-0.055
-0.055
-0.050
-0.050
-0.050
-0.050
-0.045
-0.040
-0.030
-0.025
-0.015
-0.010
-0.005
-0.005
-0.010
-0.015
-0.025
-0.025
-0.030
-0.025
-0.020
-0.015
-0.010
-0.005
-0.005
-0.010
-0.015
-0.025
-0.035
-0.035
-0.035
-0.030
-0.020
-0.005
0.010
0.020
0.030
0.030
0.020
0.010
-0.005
-0.020
-0.035
-0.045
-0.055
-0.055
-0.055
-0.055
-0.055
-0.055
-0.055
-0.060
-0.070
-0.080
-0.090
-0.095
-0.100
-0.100
-0.095
-0.090
-0.080
-0.070
-0.060
-0.050
-0.040
-0.030
-0.015
0.000
0.025
0.050
0.075
0.105
0.135
0.160
0.175
0.175
0.165
0.140
0.095
0.040
-0.030
-0.100
-0.175
-0.245
-0.305
-0.360
-0.400
-0.435
-0.460
-0.475
-0.490
-0.495
-0.490
-0.475
-0.450
-0.410
-0.360
-0.305
-0.245
-0.190
-0.145
-0.110
-0.095
-0.090
-0.090
-0.100
-0.105
-0.105
-0.105
-0.095
-0.085
-0.070
-0.060
-0.050
-0.040
-0.035
-0.030
-0.025
-0.020
-0.015
-0.005
0.000
0.010
0.015
0.020
0.020
0.025
0.025
0.030
0.035
0.035
0.035
0.035
0.025
0.015
0.005
-0.005
-0.015
-0.020
-0.020
-0.015
-0.005
0.010
0.025
0.040
0.050
0.060
0.070
0.075
0.075
0.075
0.075
0.075
0.070
0.065
0.060
0.060
0.060
0.060
0.070
0.085
0.100
0.115
0.130
0.145
0.150
0.155
0.150
0.145
0.130
0.120
0.110
0.100
0.095
0.100
0.105
0.110
0.125
0.140
0.155
0.175
0.190
0.200
0.210
0.215
0.220
0.225
0.230
0.235
0.245
0.260
0.280
0.295
0.310
0.320
0.320
0.320
0.310
0.300
0.290
0.280
0.285
0.290
0.310
0.330
0.350
0.370
0.385
0.395
0.390
0.380
0.370
0.355
0.345
0.335
0.330
0.330
0.325
0.320
0.310
0.295
0.275
0.260
0.240
0.225
0.215
0.205
0.195
0.185
0.175
0.160
0.145
0.125
0.110
0.100
0.100
0.100
0.105
0.110
0.110
0.110
0.095
0.075
0.050
0.025
0.000
-0.020
-0.030
-0.030
-0.025
-0.020
-0.010
-0.005
-0.005
-0.010
-0.010
-0.015
-0.015
-0.015
-0.015
-0.010
-0.005
-0.005
-0.010
-0.020
-0.030
-0.040
-0.050
-0.060
-0.065
-0.070
-0.070
-0.065
-0.065
-0.060
-0.060
-0.055
-0.055
-0.050
-0.050
-0.045
-0.035
-0.030
-0.025
-0.020
-0.015
-0.015
-0.010
-0.010
-0.005
0.000
0.000
0.005
0.005
0.005
0.000
-0.005
-0.010
-0.015
-0.015
-0.015
-0.015
-0.010
-0.005
-0.005
-0.005
-0.005
-0.010
-0.015
-0.020
-0.020
-0.025
-0.025
-0.025
-0.020
-0.020
-0.015
-0.010
-0.005
0.000
0.005
0.005
0.010
0.015
0.015
0.010
0.005
-0.005
-0.010
-0.020
-0.030
-0.030
-0.030
-0.025
-0.015
-0.005
0.005
0.015
0.020
0.015
0.010
0.000
-0.015
-0.025
-0.035
-0.040
-0.035
-0.030
-0.020
-0.010
-0.005
0.005
0.010
0.010
0.005
0.000
-0.010
-0.020
-0.030
-0.035
-0.045
-0.050
-0.050
-0.050
-0.050
-0.045
-0.040
-0.040
-0.040
-0.040
-0.045
-0.050
-0.055
-0.055
-0.055
-0.045
-0.035
-0.020
-0.010
0.005
0.010
0.015
0.010
0.000
-0.010
-0.025
-0.030
-0.035
-0.035
-0.035
-0.035
-0.035
-0.040
-0.045
-0.055
-0.065
-0.070
-0.080
-0.080
-0.075
-0.070
-0.065
-0.055
-0.050
-0.045
-0.045
-0.045
-0.045
-0.045
-0.040
-0.040
-0.035
-0.030
-0.025
-0.025
-0.025
-0.030
-0.035
-0.040
-0.045
-0.050
-0.050
-0.050
-0.050
-0.045
-0.040
-0.035
-0.030
-0.030
-0.030
-0.035
-0.045
-0.050
-0.060
-0.065
-0.065
-0.060
-0.055
-0.050
-0.040
-0.030
-0.030
-0.030
-0.030
-0.040
-0.045
-0.055
-0.060
-0.065
-0.065
-0.065
-0.060
-0.060
-0.060
-0.060
-0.065
-0.070
-0.075
-0.075
-0.075
-0.070
-0.060
-0.050
-0.040
-0.030
-0.020
-0.015
-0.015
-0.020
-0.025
-0.035
-0.045
-0.050
-0.050
-0.050
-0.050
-0.045
-0.035
-0.030
-0.020
-0.020
-0.015
-0.020
-0.025
-0.035
-0.045
-0.055
-0.060
-0.065
-0.065
-0.060
-0.055
-0.050
-0.045
-0.045
-0.045
-0.045
-0.050
-0.055
-0.060
-0.065
-0.065
-0.060
-0.060
-0.055
-0.055
-0.050
-0.050
-0.050
-0.050
-0.050
-0.045
-0.040
-0.035
-0.030
-0.030
-0.035
-0.045
-0.060
-0.075
-0.090
-0.100
-0.105
-0.100
-0.095
-0.080
-0.065
-0.050
-0.035
-0.025
-0.015
-0.010
-0.010
-0.010
-0.015
-0.015
-0.015
-0.015
-0.010
-0.015
-0.015
-0.020
-0.025
-0.035
-0.040
-0.050
-0.055
-0.060
-0.060
-0.060
-0.060
-0.055
-0.055
-0.050
-0.050
-0.050
-0.050
-0.055
-0.055
-0.060
-0.060
-0.060
-0.060
-0.055
-0.055
-0.050
-0.045
-0.040
-0.040
-0.040
-0.045
-0.050
-0.060
-0.065
-0.070
-0.070
-0.070
-0.070
-0.070
-0.070
-0.065
-0.065
-0.060
-0.055
-0.050
-0.040
-0.025
-0.015
0.000
0.010
0.015
0.020
0.015
0.005
-0.005
-0.015
-0.020
-0.020
-0.015
0.000
0.020
0.040
0.060
0.075
0.085
0.085
0.080
0.075
0.060
0.050
0.040
0.035
0.035
0.035
0.035
0.035
0.035
0.030
0.025
0.020
0.015
0.005
0.005
0.000
-0.005
-0.005
-0.010
-0.015
-0.020
-0.025
-0.035
-0.045
-0.050
-0.055
-0.060
-0.065
-0.065
-0.070
-0.065
-0.065
-0.060
-0.050
-0.045
-0.035
-0.030
-0.025
-0.020
-0.020
-0.020
-0.015
0.000
0.015
0.040
0.080
0.120
0.165
0.210
0.250
0.275
0.285
0.280
0.255
0.215
0.155
0.085
0.010
-0.075
-0.165
-0.245
-0.325
-0.395
-0.450
-0.485
-0.510
-0.510
-0.500
-0.470
-0.430
-0.380
-0.330
-0.280
-0.235
-0.195
-0.160
-0.135
-0.115
-0.100
-0.090
-0.085
-0.080
-0.075
-0.075
-0.070
-0.060
-0.050
-0.040
-0.030
-0.015
-0.005
0.000
0.005
0.005
0.000
-0.005
-0.005
-0.010
-0.005
0.000
0.010
0.015
0.025
0.030
0.035
0.035
0.030
0.025
0.020
0.015
0.015
0.015
0.020
0.020
0.025
0.025
0.025
0.025
0.025
0.025
0.030
0.030
0.035
0.040
0.040
0.045
0.045
0.050
0.055
0.060
0.065
0.075
0.085
0.095
0.105
0.110
0.110
0.110
0.105
0.095
0.090
0.085
0.080
0.080
0.085
0.090
0.100
0.105
0.105
0.110
0.110
0.110
0.115
0.120
0.130
0.140
0.155
0.170
0.185
0.200
0.205
0.210
0.210
0.210
0.210
0.210
0.215
0.225
0.235
0.250
0.270
0.285
0.295
0.305
0.305
0.305
0.305
0.300
0.300
0.305
0.310
0.315
0.325
0.330
0.330
0.330
0.325
0.315
0.310
0.305
0.300
0.300
0.300
0.305
0.310
0.310
0.305
0.295
0.280
0.255
0.235
0.210
0.185
0.170
0.155
0.145
0.135
0.130
0.125
0.120
0.120
0.115
0.115
0.110
0.110
0.105
0.100
0.090
0.070
0.050
0.030
0.005
-0.015
-0.030
-0.040
-0.040
-0.040
-0.030
-0.025
-0.020
-0.015
-0.015
-0.015
-0.015
-0.015
-0.015
-0.010
-0.010
-0.010
-0.015
-0.020
-0.025
-0.035
-0.040
-0.040
-0.040
-0.035
-0.030
-0.025
-0.015
-0.015
-0.020
-0.030
-0.045
-0.060
-0.075
-0.085
-0.085
-0.080
-0.070
-0.050
-0.035
-0.020
-0.005
0.005
0.005
0.005
0.000
-0.010
-0.015
-0.020
-0.025
-0.025
-0.020
-0.015
-0.005
0.000
0.005
0.010
0.010
0.010
0.005
-0.005
-0.015
-0.025
-0.030
-0.035
-0.035
-0.030
-0.020
-0.010
-0.005
0.000
0.000
0.000
-0.010
-0.020
-0.030
-0.035
-0.040
-0.040
-0.035
-0.025
-0.015
-0.005
0.000
0.005
0.000
0.000
-0.005
-0.015
-0.020
-0.020
-0.020
-0.015
-0.005
0.005
0.010
0.020
0.020
0.020
0.020
0.010
0.005
-0.005
-0.015
-0.025
-0.030
-0.035
-0.035
-0.035
-0.030
-0.025
-0.020
-0.015
-0.015
-0.015
-0.020
-0.025
-0.030
-0.040
-0.050
-0.055
-0.065
-0.070
-0.070
-0.065
-0.065
-0.055
-0.045
-0.035
-0.030
-0.020
-0.020
-0.020
-0.025
-0.035
-0.045
-0.055
-0.065
-0.070
-0.070
-0.065
-0.050
-0.035
-0.020
-0.010
0.000
0.000
-0.005
-0.020
-0.035
-0.050
-0.065
-0.075
-0.075
-0.070
-0.065
-0.050
-0.040
-0.030
-0.020
-0.015
-0.015
-0.020
-0.025
-0.030
-0.035
-0.045
-0.050
-0.050
-0.055
-0.060
-0.060
-0.060
-0.055
-0.050
-0.040
-0.030
-0.025
-0.015
-0.010
-0.010
-0.015
-0.020
-0.030
-0.040
-0.050
-0.060
-0.065
-0.070
-0.075
-0.070
-0.070
-0.065
-0.060
-0.055
-0.050
-0.050
-0.045
-0.050
-0.050
-0.055
-0.055
-0.060
-0.060
-0.060
-0.060
-0.055
-0.045
-0.035
-0.025
-0.015
-0.005
0.000
0.000
-0.005
-0.015
-0.020
-0.030
-0.035
-0.040
-0.040
-0.040
-0.035
-0.030
-0.020
-0.015
-0.010
-0.010
-0.015
-0.020
-0.030
-0.035
-0.045
-0.055
-0.065
-0.070
-0.070
-0.070
-0.070
-0.065
-0.060
-0.050
-0.045
-0.040
-0.035
-0.030
-0.025
-0.025
-0.025
-0.030
-0.035
-0.040
-0.045
-0.050
-0.055
-0.055
-0.050
-0.040
-0.030
-0.015
-0.005
0.000
0.005
0.005
-0.005
-0.015
-0.025
-0.035
-0.045
-0.050
-0.055
-0.055
-0.050
-0.045
-0.040
-0.035
-0.030
-0.025
-0.025
-0.025
-0.025
-0.025
-0.025
-0.030
-0.035
-0.040
-0.040
-0.045
-0.045
-0.040
-0.035
-0.030
-0.020
-0.015
-0.010
-0.005
-0.010
-0.015
-0.025
-0.040
-0.050
-0.060
-0.065
-0.060
-0.055
-0.045
-0.030
-0.020
-0.010
-0.005
-0.010
-0.020
-0.035
-0.050
-0.060
-0.070
-0.070
-0.065
-0.055
-0.045
-0.035
-0.025
-0.020
-0.020
-0.020
-0.030
-0.035
-0.040
-0.040
-0.040
-0.035
-0.030
-0.025
-0.025
-0.025
-0.025
-0.025
-0.030
-0.030
-0.030
-0.025
-0.020
-0.020
-0.015
-0.020
-0.025
-0.035
-0.045
-0.055
-0.065
-0.065
-0.065
-0.055
-0.045
-0.035
-0.030
-0.020
-0.020
-0.015
-0.020
-0.020
-0.020
-0.025
-0.020
-0.020
-0.015
-0.015
-0.015
-0.015
-0.015
-0.020
-0.025
-0.030
-0.035
-0.040
-0.045
-0.045
-0.045
-0.040
-0.030
-0.020
0.000
0.015
0.035
0.050
0.065
0.075
0.075
0.065
0.055
0.040
0.025
0.010
0.000
-0.005
-0.005
-0.005
-0.005
-0.005
-0.005
-0.010
-0.020
-0.030
-0.035
-0.045
-0.050
-0.055
-0.055
-0.055
-0.055
-0.055
-0.060
-0.060
-0.065
-0.065
-0.060
-0.055
-0.050
-0.045
-0.035
-0.030
-0.030
-0.030
-0.030
-0.035
-0.040
-0.040
-0.040
-0.030
-0.020
0.000
0.030
0.060
0.095
0.135
0.170
0.205
0.225
0.235
0.225
0.200
0.155
0.090
0.015
-0.070
-0.160
-0.245
-0.325
-0.395
-0.450
-0.490
-0.520
-0.530
-0.530
-0.515
-0.490
-0.455
-0.410
-0.355
-0.300
-0.245
-0.190
-0.140
-0.100
-0.070
-0.045
-0.035
-0.025
-0.025
-0.025
-0.020
-0.020
-0.020
-0.020
-0.020
-0.025
-0.035
-0.040
-0.050
-0.055
-0.060
-0.060
-0.055
-0.045
-0.035
-0.020
-0.005
0.010
0.020
0.025
0.030
0.030
0.030
0.025
0.020
0.020
0.015
0.015
0.015
0.020
0.020
0.025
0.025
0.025
0.025
0.025
0.025
0.025
0.025
0.025
0.025
0.030
0.035
0.040
0.050
0.055
0.065
0.080
0.090
0.100
0.105
0.115
0.115
0.115
0.115
0.105
0.100
0.090
0.085
0.075
0.070
0.065
0.065
0.065
0.065
0.070
0.075
0.090
0.100
0.115
0.135
0.150
0.160
0.170
0.175
0.175
0.175
0.170
0.170
0.175
0.185
0.195
0.215
0.235
0.255
0.270
0.285
0.290
0.295
0.295
0.295
0.295
0.300
0.305
0.310
0.320
0.325
0.325
0.325
0.320
0.315
0.305
0.300
0.295
0.295
0.300
0.305
0.310
0.310
0.310
0.300
0.295
0.280
0.270
0.260
0.250
0.240
0.235
0.230
0.220
0.210
0.195
0.175
0.155
0.135
0.110
0.095
0.085
0.075
0.070
0.070
0.070
0.070
0.060
0.050
0.035
0.020
0.005
-0.010
-0.020
-0.025
-0.020
-0.015
-0.005
0.005
0.010
0.015
0.015
0.010
0.000
-0.010
-0.020
-0.030
-0.030
-0.030
-0.025
-0.020
-0.010
-0.005
-0.005
-0.005
-0.015
-0.030
-0.045
-0.060
-0.075
-0.080
-0.085
-0.080
-0.075
-0.065
-0.055
-0.045
-0.035
-0.025
-0.015
-0.010
0.000
0.005
0.005
0.005
0.005
-0.005
-0.015
-0.025
-0.035
-0.040
-0.040
-0.030
-0.020
-0.005
0.010
0.020
0.025
0.025
0.020
0.005
-0.010
-0.025
-0.035
-0.040
-0.040
-0.035
-0.025
-0.015
0.000
0.010
0.020
0.025
0.025
0.025
0.015
0.005
-0.005
-0.010
-0.020
-0.025
-0.030
-0.035
-0.030
-0.030
-0.025
-0.025
-0.020
-0.015
-0.015
-0.010
-0.010
-0.005
-0.005
-0.005
0.000
0.000
0.000
0.000
-0.005
-0.010
-0.020
-0.025
-0.030
-0.035
-0.040
-0.035
-0.035
-0.030
-0.025
-0.025
-0.025
-0.030
-0.040
-0.045
-0.050
-0.055
-0.055
-0.045
-0.040
-0.030
-0.015
-0.005
0.000
0.000
-0.005
-0.010
-0.020
-0.025
-0.035
-0.045
-0.050
-0.050
-0.055
-0.050
-0.045
-0.040
-0.025
-0.015
-0.005
0.010
0.015
0.020
0.015
0.005
-0.005
-0.025
-0.045
-0.060
-0.070
-0.075
-0.070
-0.055
-0.040
-0.025
-0.005
0.005
0.010
0.010
0.005
-0.010
-0.025
-0.040
-0.055
-0.065
-0.075
-0.085
-0.090
-0.090
-0.090
-0.085
-0.080
-0.070
-0.065
-0.055
-0.050
-0.045
-0.040
-0.040
-0.040
-0.035
-0.035
-0.035
-0.035
-0.035
-0.030
-0.030
-0.030
-0.030
-0.030
-0.030
-0.030
-0.030
-0.030
-0.035
-0.035
-0.040
-0.050
-0.055
-0.060
-0.070
-0.070
-0.070
-0.070
-0.060
-0.050
-0.040
-0.030
-0.025
-0.025
-0.035
-0.045
-0.055
-0.065
-0.070
-0.070
-0.065
-0.060
-0.050
-0.040
-0.035
-0.040
-0.045
-0.055
-0.065
-0.070
-0.075
-0.075
-0.065
-0.060
-0.050
-0.045
-0.045
-0.050
-0.060
-0.070
-0.075
-0.080
-0.080
-0.070
-0.060
-0.045
-0.035
-0.025
-0.025
-0.030
-0.040
-0.055
-0.065
-0.075
-0.080
-0.080
-0.080
-0.075
-0.070
-0.070
-0.075
-0.080
-0.085
-0.090
-0.090
-0.080
-0.070
-0.050
-0.030
-0.015
0.000
0.005
0.000
-0.010
-0.030
-0.050
-0.065
-0.075
-0.080
-0.080
-0.070
-0.055
-0.045
-0.035
-0.030
-0.035
-0.040
-0.045
-0.055
-0.060
-0.065
-0.060
-0.055
-0.045
-0.040
-0.035
-0.035
-0.035
-0.040
-0.045
-0.045
-0.050
-0.045
-0.035
-0.020
-0.005
0.010
0.025
0.040
0.045
0.050
0.045
0.040
0.030
0.015
0.005
-0.010
-0.020
-0.025
-0.025
-0.020
-0.015
-0.005
0.000
0.000
0.000
-0.005
-0.020
-0.030
-0.045
-0.055
-0.065
-0.065
-0.060
-0.050
-0.040
-0.030
-0.020
-0.015
-0.015
-0.020
-0.030
-0.035
-0.045
-0.055
-0.060
-0.070
-0.075
-0.075
-0.075
-0.070
-0.065
-0.055
-0.040
-0.020
0.000
0.020
0.040
0.060
0.080
0.100
0.115
0.130
0.145
0.150
0.150
0.140
0.115
0.075
0.025
-0.040
-0.110
-0.190
-0.265
-0.340
-0.405
-0.460
-0.505
-0.535
-0.545
-0.545
-0.525
-0.495
-0.455
-0.410
-0.360
-0.315
-0.280
-0.250
-0.225
-0.210
-0.195
-0.180
-0.160
-0.130
-0.095
-0.055
-0.015
0.015
0.040
0.050
0.045
0.035
0.020
0.000
-0.010
-0.015
-0.010
0.000
0.015
0.035
0.050
0.055
0.060
0.055
0.045
0.030
0.020
0.010
0.005
0.005
0.010
0.015
0.025
0.030
0.040
0.045
0.050
0.055
0.065
0.070
0.075
0.085
0.085
0.085
0.075
0.065
0.050
0.030
0.015
0.010
0.010
0.020
0.035
0.065
0.090
0.120
0.140
0.155
0.160
0.160
0.155
0.150
0.140
0.140
0.135
0.135
0.140
0.140
0.140
0.140
0.135
0.135
0.135
0.140
0.145
0.160
0.170
0.180
0.185
0.190
0.190
0.185
0.180
0.180
0.185
0.195
0.210
0.230
0.245
0.265
0.275
0.285
0.290
0.295
0.295
0.300
0.305
0.315
0.325
0.335
0.345
0.345
0.345
0.340
0.330
0.320
0.315
0.310
0.310
0.310
0.310
0.310
0.310
0.305
0.300
0.290
0.280
0.270
0.265
0.255
0.245
0.235
0.225
0.205
0.190
0.170
0.150
0.130
0.115
0.105
0.095
0.090
0.085
0.080
0.080
0.075
0.065
0.060
0.045
0.035
0.015
0.000
-0.020
-0.040
-0.055
-0.070
-0.075
-0.075
-0.070
-0.065
-0.055
-0.050
-0.045
-0.040
-0.045
-0.045
-0.050
-0.050
-0.050
-0.045
-0.040
-0.040
-0.040
-0.045
-0.055
-0.070
-0.085
-0.100
-0.115
-0.120
-0.125
-0.120
-0.115
-0.105
-0.095
-0.085
-0.070
-0.060
-0.045
-0.035
-0.020
-0.010
-0.005
-0.005
-0.010
-0.020
-0.035
-0.050
-0.065
-0.075
-0.085
-0.085
-0.080
-0.075
-0.070
-0.065
-0.060
-0.065
-0.065
-0.065
-0.065
-0.060
-0.055
-0.045
-0.035
-0.025
-0.025
-0.025
-0.025
-0.030
-0.035
-0.035
-0.030
-0.020
-0.010
-0.005
0.000
-0.005
-0.015
-0.025
-0.040
-0.050
-0.060
-0.055
-0.045
-0.035
-0.015
-0.005
0.005
0.005
0.000
-0.010
-0.025
-0.035
-0.045
-0.050
-0.050
-0.045
-0.040
-0.035
-0.030
-0.025
-0.025
-0.025
-0.025
-0.025
-0.020
-0.020
-0.025
-0.025
-0.030
-0.035
-0.045
-0.050
-0.055
-0.055
-0.055
-0.055
-0.060
-0.060
-0.060
-0.065
-0.070
-0.070
-0.070
-0.065
-0.055
-0.050
-0.040
-0.035
-0.035
-0.040
-0.055
-0.065
-0.075
-0.085
-0.085
-0.080
-0.065
-0.050
-0.035
-0.025
-0.015
-0.015
-0.015
-0.025
-0.035
-0.045
-0.050
-0.050
-0.045
-0.040
-0.035
-0.035
-0.035
-0.040
-0.050
-0.060
-0.070
-0.075
-0.080
-0.080
-0.075
-0.065
-0.060
-0.055
-0.050
-0.050
-0.055
-0.055
-0.060
-0.060
-0.055
-0.050
-0.045
-0.040
-0.035
-0.035
-0.030
-0.035
-0.035
-0.040
-0.045
-0.045
-0.045
-0.045
-0.045
-0.040
-0.035
-0.030
-0.020
-0.015
-0.010
-0.010
-0.005
0.000
0.000
0.000
-0.005
-0.010
-0.015
-0.025
-0.040
-0.050
-0.060
-0.065
-0.070
-0.070
-0.065
-0.065
-0.060
-0.055
-0.050
-0.055
-0.055
-0.060
-0.065
-0.070
-0.070
-0.065
-0.060
-0.055
-0.045
-0.040
-0.035
-0.030
-0.030
-0.035
-0.035
-0.035
-0.035
-0.030
-0.030
-0.025
-0.020
-0.020
-0.020
-0.025
-0.030
-0.035
-0.040
-0.040
-0.035
-0.030
-0.020
-0.015
-0.010
-0.010
-0.010
-0.010
-0.015
-0.015
-0.010
0.000
0.010
0.020
0.035
0.040
0.045
0.040
0.030
0.020
0.005
-0.010
-0.020
-0.025
-0.025
-0.020
-0.015
-0.010
-0.005
-0.010
-0.015
-0.020
-0.030
-0.040
-0.050
-0.050
-0.050
-0.045
-0.040
-0.035
-0.030
-0.030
-0.025
-0.030
-0.030
-0.030
-0.035
-0.035
-0.035
-0.040
-0.040
-0.040
-0.040
-0.040
-0.040
-0.035
-0.030
-0.025
-0.015
-0.005
0.005
0.020
0.035
0.050
0.075
0.100
0.125
0.150
0.170
0.175
0.175
0.155
0.120
0.070
0.005
-0.065
-0.140
-0.215
-0.285
-0.350
-0.400
-0.440
-0.465
-0.480
-0.485
-0.485
-0.470
-0.445
-0.415
-0.375
-0.335
-0.290
-0.250
-0.210
-0.175
-0.150
-0.130
-0.115
-0.100
-0.095
-0.090
-0.080
-0.075
-0.070
-0.060
-0.050
-0.040
-0.030
-0.020
-0.015
-0.010
-0.005
0.000
-0.005
-0.005
-0.010
-0.010
-0.010
-0.010
-0.005
0.000
0.005
0.010
0.015
0.015
0.015
0.015
0.015
0.015
0.020
0.025
0.035
0.045
0.055
0.060
0.065
0.060
0.055
0.045
0.035
0.030
0.025
0.025
0.025
0.030
0.035
0.040
0.040
0.040
0.040
0.035
0.035
0.040
0.050
0.065
0.085
0.100
0.120
0.130
0.140
0.140
0.135
0.130
0.120
0.110
0.110
0.110
0.115
0.130
0.145
0.160
0.180
0.195
0.210
0.220
0.225
0.225
0.225
0.220
0.220
0.220
0.225
0.230
0.240
0.245
0.255
0.265
0.275
0.285
0.290
0.295
0.300
0.305
0.310
0.315
0.320
0.325
0.330
0.335
0.335
0.335
0.335
0.330
0.325
0.320
0.320
0.320
0.320
0.325
0.330
0.335
0.335
0.335
0.330
0.320
0.300
0.275
0.250
0.225
0.205
0.185
0.170
0.160
0.160
0.155
0.155
0.150
0.140
0.125
0.110
0.085
0.065
0.045
0.025
0.010
-0.005
-0.010
-0.015
-0.020
-0.020
-0.025
-0.025
-0.025
-0.030
-0.025
-0.025
-0.020
-0.015
-0.010
-0.005
0.000
0.005
0.000
0.000
-0.005
-0.010
-0.015
-0.020
-0.025
-0.030
-0.030
-0.035
-0.040
-0.045
-0.045
-0.045
-0.045
-0.045
-0.040
-0.035
-0.030
-0.025
-0.025
-0.025
-0.025
-0.030
-0.035
-0.040
-0.045
-0.055
-0.065
-0.070
-0.075
-0.080
-0.080
-0.080
-0.075
-0.070
-0.060
-0.050
-0.040
-0.030
-0.020
-0.015
-0.005
-0.005
-0.005
-0.005
-0.005
-0.005
-0.010
-0.010
-0.010
-0.015
-0.015
-0.015
-0.010
-0.010
-0.005
0.000
0.000
0.005
0.005
0.005
0.000
-0.005
-0.005
-0.005
-0.005
-0.005
0.000
0.000
0.005
0.005
0.005
0.005
0.000
-0.005
-0.015
-0.020
-0.025
-0.030
-0.030
-0.035
-0.030
-0.030
-0.025
-0.020
-0.015
-0.005
0.000
0.005
0.010
0.015
0.015
0.010
0.005
0.000
-0.005
-0.005
-0.005
-0.005
-0.005
0.000
0.000
0.005
0.000
0.000
-0.005
-0.010
-0.015
-0.020
-0.025
-0.025
-0.025
-0.025
-0.025
-0.030
-0.030
-0.040
-0.045
-0.055
-0.060
-0.060
-0.060
-0.055
-0.050
-0.035
-0.025
-0.020
-0.010
-0.010
-0.010
-0.015
-0.020
-0.030
-0.040
-0.045
-0.055
-0.060
-0.060
-0.060
-0.060
-0.050
-0.045
-0.035
-0.025
-0.015
-0.010
-0.005
-0.005
-0.010
-0.015
-0.020
-0.020
-0.025
-0.025
-0.020
-0.020
-0.020
-0.025
-0.030
-0.040
-0.055
-0.065
-0.070
-0.065
-0.060
-0.045
-0.030
-0.010
0.005
0.015
0.015
0.015
0.005
-0.010
-0.020
-0.030
-0.040
-0.040
-0.040
-0.035
-0.030
-0.030
-0.030
-0.030
-0.035
-0.040
-0.045
-0.050
-0.055
-0.060
-0.060
-0.060
-0.055
-0.050
-0.040
-0.030
-0.020
-0.015
-0.015
-0.020
-0.030
-0.040
-0.055
-0.070
-0.080
-0.085
-0.085
-0.080
-0.065
-0.055
-0.040
-0.030
-0.020
-0.015
-0.015
-0.015
-0.020
-0.025
-0.035
-0.040
-0.050
-0.060
-0.070
-0.075
-0.080
-0.080
-0.075
-0.070
-0.060
-0.055
-0.045
-0.040
-0.035
-0.035
-0.040
-0.040
-0.045
-0.050
-0.050
-0.050
-0.045
-0.045
-0.040
-0.035
-0.035
-0.035
-0.035
-0.035
-0.035
-0.030
-0.030
-0.030
-0.030
-0.030
-0.035
-0.040
-0.050
-0.055
-0.060
-0.065
-0.065
-0.065
-0.065
-0.065
-0.065
-0.065
-0.065
-0.065
-0.065
-0.065
-0.060
-0.055
-0.055
-0.050
-0.045
-0.050
-0.050
-0.060
-0.070
-0.075
-0.085
-0.090
-0.090
-0.085
-0.080
-0.075
-0.065
-0.055
-0.050
-0.045
-0.045
-0.045
-0.045
-0.045
-0.045
-0.050
-0.050
-0.050
-0.050
-0.055
-0.055
-0.055
-0.060
-0.060
-0.060
-0.060
-0.060
-0.060
-0.065
-0.065
-0.065
-0.065
-0.060
-0.055
-0.050
-0.040
-0.030
-0.020
-0.015
-0.015
-0.020
-0.030
-0.045
-0.060
-0.080
-0.095
-0.105
-0.110
-0.110
-0.100
-0.090
-0.080
-0.070
-0.065
-0.060
-0.065
-0.070
-0.075
-0.075
-0.075
-0.075
-0.065
-0.055
-0.045
-0.040
-0.035
-0.030
-0.035
-0.035
-0.040
-0.045
-0.045
-0.040
-0.035
-0.025
-0.020
-0.015
-0.010
-0.005
-0.005
-0.005
-0.005
0.000
0.010
0.020
0.025
0.030
0.030
0.025
0.015
-0.005
-0.030
-0.050
-0.065
-0.075
-0.075
-0.070
-0.055
-0.040
-0.020
-0.005
0.000
0.005
-0.005
-0.020
-0.035
-0.055
-0.075
-0.090
-0.100
-0.100
-0.095
-0.085
-0.075
-0.060
-0.050
-0.045
-0.045
-0.050
-0.060
-0.070
-0.085
-0.090
-0.095
-0.085
-0.075
-0.055
-0.030
-0.010
0.015
0.035
0.050
0.065
0.080
0.100
0.120
0.145
0.175
0.195
0.210
0.210
0.190
0.145
0.080
0.000
-0.095
-0.195
-0.285
-0.370
-0.435
-0.480
-0.510
-0.515
-0.510
-0.490
-0.465
-0.435
-0.405
-0.375
-0.340
-0.310
-0.280
-0.255
-0.225
-0.195
-0.165
-0.140
-0.110
-0.090
-0.070
-0.055
-0.045
-0.035
-0.035
-0.035
-0.035
-0.035
-0.035
-0.030
-0.020
-0.010
0.000
0.005
0.010
0.015
0.015
0.010
0.005
0.000
0.000
0.000
0.000
0.000
0.000
0.005
0.005
0.010
0.015
0.020
0.030
0.035
0.045
0.050
0.050
0.045
0.035
0.020
0.005
-0.005
-0.020
-0.025
-0.020
-0.015
-0.005
0.010
0.025
0.040
0.050
0.055
0.060
0.060
0.065
0.065
0.070
0.075
0.085
0.090
0.100
0.105
0.110
0.115
0.120
0.120
0.120
0.125
0.125
0.125
0.125
0.130
0.135
0.145
0.155
0.165
0.175
0.185
0.190
0.195
0.195
0.195
0.195
0.195
0.200
0.205
0.215
0.225
0.240
0.255
0.265
0.280
0.290
0.300
0.305
0.305
0.305
0.305
0.300
0.300
0.295
0.295
0.295
0.300
0.310
0.315
0.325
0.335
0.340
0.340
0.340
0.335
0.325
0.320
0.310
0.300
0.290
0.285
0.275
0.270
0.265
0.255
0.245
0.235
0.225
0.205
0.190
0.170
0.150
0.130
0.110
0.090
0.075
0.065
0.055
0.055
0.055
0.060
0.065
0.070
0.075
0.075
0.075
0.065
0.060
0.045
0.035
0.020
0.010
0.005
0.000
0.000
0.000
0.000
0.000
0.000
0.000
-0.005
-0.005
-0.005
-0.010
-0.010
-0.005
-0.005
0.000
0.000
0.005
0.005
0.005
0.005
0.005
0.005
0.005
0.005
0.005
0.000
-0.005
-0.005
-0.010
-0.015
-0.020
-0.020
-0.020
-0.015
-0.010
-0.005
0.000
0.010
0.010
0.015
0.020
0.020
0.020
0.020
0.020
0.020
0.015
0.010
0.005
0.000
-0.010
-0.015
-0.020
-0.020
-0.015
-0.010
-0.005
0.000
0.005
0.010
0.010
0.010
0.005
0.005
0.005
0.005
0.005
0.010
0.010
0.010
0.010
0.010
0.005
0.000
0.000
-0.005
0.000
0.005
0.010
0.015
0.020
0.025
0.025
0.025
0.020
0.020
0.015
0.020
0.025
0.030
0.035
0.040
0.040
0.040
0.030
0.020
0.005
-0.010
-0.015
-0.020
-0.020
-0.020
-0.010
-0.005
0.005
0.005
0.000
-0.005
-0.015
-0.025
-0.040
-0.045
-0.055
-0.060
-0.060
-0.060
-0.060
-0.055
-0.050
-0.040
-0.030
-0.015
0.000
0.010
0.020
0.025
0.025
0.015
0.005
-0.010
-0.020
-0.030
-0.030
-0.030
-0.025
-0.015
-0.010
-0.005
-0.005
-0.010
-0.020
-0.030
-0.040
-0.045
-0.045
-0.040
-0.035
-0.025
-0.015
-0.005
0.005
0.010
0.015
0.015
0.015
0.010
0.005
0.000
-0.005
-0.010
-0.020
-0.025
-0.030
-0.035
-0.035
-0.035
-0.035
-0.035
-0.035
-0.035
-0.035
-0.030
-0.025
-0.020
-0.010
-0.005
0.000
0.000
0.000
0.000
-0.005
-0.010
-0.015
-0.015
-0.015
-0.010
-0.005
0.000
0.000
0.000
0.000
-0.005
-0.005
-0.010
-0.010
-0.005
0.000
0.005
0.010
0.010
0.010
0.010
0.005
0.000
0.000
0.000
0.000
0.005
0.010
0.010
0.015
0.010
0.005
0.000
-0.010
-0.020
-0.025
-0.025
-0.020
-0.015
-0.005
0.005
0.010
0.010
0.005
0.000
-0.010
-0.015
-0.025
-0.025
-0.025
-0.020
-0.010
0.000
0.005
0.010
0.010
0.010
0.005
0.000
-0.005
-0.005
-0.005
0.000
0.005
0.010
0.010
0.015
0.015
0.010
0.010
0.005
0.000
-0.005
-0.015
-0.020
-0.025
-0.030
-0.035
-0.035
-0.040
-0.040
-0.035
-0.030
-0.025
-0.020
-0.015
-0.015
-0.010
-0.015
-0.015
-0.020
-0.020
-0.020
-0.020
-0.015
-0.010
-0.010
-0.005
-0.010
-0.015
-0.020
-0.030
-0.040
-0.050
-0.055
-0.060
-0.060
-0.060
-0.055
-0.045
-0.040
-0.035
-0.030
-0.035
-0.040
-0.045
-0.050
-0.060
-0.060
-0.060
-0.050
-0.040
-0.025
-0.010
0.005
0.015
0.020
0.020
0.015
0.005
-0.005
-0.015
-0.030
-0.040
-0.045
-0.055
-0.060
-0.065
-0.065
-0.070
-0.070
-0.065
-0.060
-0.055
-0.045
-0.040
-0.035
-0.030
-0.030
-0.035
-0.045
-0.050
-0.060
-0.070
-0.070
-0.075
-0.070
-0.065
-0.055
-0.050
-0.040
-0.025
-0.015
-0.010
-0.005
0.000
0.000
-0.005
-0.010
-0.015
-0.020
-0.025
-0.025
-0.020
-0.015
-0.010
0.000
0.000
0.005
0.000
-0.010
-0.020
-0.025
-0.030
-0.035
-0.030
-0.020
-0.010
0.000
0.005
0.005
-0.005
-0.015
-0.035
-0.050
-0.065
-0.075
-0.080
-0.085
-0.085
-0.085
-0.090
-0.095
-0.105
-0.115
-0.125
-0.130
-0.130
-0.120
-0.105
-0.090
-0.070
-0.050
-0.040
-0.035
-0.035
-0.040
-0.050
-0.060
-0.065
-0.060
-0.050
-0.030
0.000
0.035
0.075
0.115
0.150
0.180
0.195
0.200
0.190
0.165
0.120
0.065
0.000
-0.070
-0.145
-0.215
-0.285
-0.345
-0.400
-0.450
-0.485
-0.515
-0.530
-0.535
-0.525
-0.505
-0.470
-0.425
-0.370
-0.315
-0.260
-0.210
-0.170
-0.135
-0.110
-0.095
-0.085
-0.075
-0.070
-0.065
-0.065
-0.055
-0.050
-0.045
-0.035
-0.030
-0.025
-0.020
-0.020
-0.020
-0.025
-0.035
-0.040
-0.050
-0.060
-0.060
-0.065
-0.060
-0.055
-0.050
-0.045
-0.040
-0.035
-0.030
-0.030
-0.025
-0.025
-0.020
-0.010
-0.005
0.000
0.010
0.010
0.010
0.010
0.005
0.000
0.000
0.000
0.000
0.000
0.005
0.010
0.015
0.020
0.020
0.025
0.025
0.025
0.030
0.035
0.045
0.050
0.055
0.055
0.055
0.055
0.050
0.050
0.050
0.055
0.060
0.070
0.080
0.090
0.095
0.100
0.100
0.100
0.095
0.095
0.095
0.100
0.110
0.120
0.140
0.160
0.175
0.195
0.205
0.215
0.220
0.225
0.225
0.225
0.225
0.230
0.240
0.250
0.260
0.270
0.280
0.290
0.295
0.300
0.305
0.310
0.310
0.315
0.315
0.310
0.310
0.300
0.290
0.280
0.270
0.255
0.245
0.245
0.245
0.245
0.250
0.260
0.260
0.260
0.255
0.240
0.225
0.200
0.180
0.155
0.130
0.110
0.090
0.070
0.060
0.050
0.045
0.045
0.045
0.050
0.060
0.065
0.070
0.065
0.055
0.040
0.025
0.005
-0.015
-0.030
-0.035
-0.035
-0.035
-0.025
-0.020
-0.020
-0.025
-0.030
-0.040
-0.055
-0.065
-0.075
-0.075
-0.070
-0.065
-0.055
-0.045
-0.035
-0.030
-0.030
-0.030
-0.035
-0.035
-0.040
-0.040
-0.040
-0.040
-0.040
-0.035
-0.035
-0.035
-0.035
-0.035
-0.030
-0.025
-0.015
-0.010
-0.005
0.000
0.005
0.005
0.000
-0.005
-0.015
-0.020
-0.030
-0.040
-0.045
-0.045
-0.045
-0.045
-0.035
-0.025
-0.015
-0.005
0.000
0.005
0.000
-0.005
-0.015
-0.025
-0.035
-0.040
-0.040
-0.030
-0.020
0.000
0.015
0.030
0.040
0.040
0.030
0.020
0.005
-0.010
-0.020
-0.030
-0.030
-0.025
-0.020
-0.020
-0.015
-0.020
-0.025
-0.030
-0.035
-0.040
-0.040
-0.030
-0.025
-0.010
0.000
0.010
0.010
0.010
0.005
0.000
-0.010
-0.020
-0.030
-0.035
-0.040
-0.045
-0.045
-0.045
-0.040
-0.035
-0.025
-0.010
0.005
0.015
0.025
0.025
0.020
0.010
-0.005
-0.020
-0.035
-0.050
-0.055
-0.055
-0.045
-0.035
-0.025
-0.015
-0.015
-0.015
-0.025
-0.040
-0.055
-0.075
-0.085
-0.095
-0.095
-0.090
-0.080
-0.065
-0.050
-0.035
-0.020
-0.010
-0.005
0.000
0.000
-0.005
-0.010
-0.010
-0.015
-0.020
-0.020
-0.020
-0.025
-0.025
-0.030
-0.035
-0.040
-0.040
-0.045
-0.040
-0.040
-0.035
-0.030
-0.020
-0.015
-0.010
-0.005
0.000
0.000
0.000
-0.005
-0.010
-0.015
-0.020
-0.025
-0.025
-0.030
-0.035
-0.040
-0.045
-0.050
-0.055
-0.065
-0.070
-0.075
-0.075
-0.070
-0.065
-0.055
-0.045
-0.035
-0.030
-0.025
-0.025
-0.025
-0.030
-0.035
-0.035
-0.035
-0.035
-0.030
-0.025
-0.020
-0.015
-0.010
-0.005
0.000
0.000
0.000
0.000
0.000
-0.005
-0.010
-0.015
-0.020
-0.025
-0.025
-0.025
-0.015
-0.010
0.005
0.015
0.020
0.020
0.015
0.005
-0.015
-0.035
-0.055
-0.070
-0.080
-0.085
-0.075
-0.060
-0.040
-0.015
0.000
0.015
0.025
0.025
0.020
0.005
-0.010
-0.025
-0.035
-0.040
-0.045
-0.045
-0.040
-0.030
-0.025
-0.020
-0.020
-0.015
-0.020
-0.020
-0.025
-0.030
-0.030
-0.030
-0.025
-0.025
-0.020
-0.010
-0.005
0.000
0.005
0.010
0.010
0.005
0.000
-0.010
-0.020
-0.035
-0.045
-0.055
-0.060
-0.060
-0.055
-0.045
-0.030
-0.015
0.005
0.020
0.030
0.030
0.030
0.025
0.015
0.005
0.000
-0.005
-0.010
-0.010
-0.005
-0.005
-0.010
-0.010
-0.020
-0.025
-0.025
-0.025
-0.020
-0.005
0.015
0.035
0.055
0.070
0.080
0.080
0.070
0.055
0.035
0.020
0.000
-0.010
-0.015
-0.015
-0.015
-0.010
-0.010
-0.010
-0.010
-0.015
-0.020
-0.025
-0.025
-0.030
-0.030
-0.030
-0.035
-0.035
-0.035
-0.035
-0.035
-0.035
-0.035
-0.035
-0.035
-0.035
-0.040
-0.045
-0.050
-0.060
-0.070
-0.080
-0.090
-0.100
-0.100
-0.100
-0.090
-0.080
-0.060
-0.040
-0.020
-0.005
0.015
0.035
0.055
0.070
0.090
0.105
0.115
0.120
0.115
0.095
0.060
0.010
-0.050
-0.120
-0.190
-0.260
-0.320
-0.375
-0.420
-0.455
-0.480
-0.500
-0.515
-0.525
-0.530
-0.520
-0.500
-0.465
-0.420
-0.370
-0.315
-0.260
-0.215
-0.185
-0.160
-0.150
-0.150
-0.150
-0.155
-0.155
-0.155
-0.145
-0.140
-0.130
-0.120
-0.115
-0.105
-0.100
-0.090
-0.085
-0.070
-0.060
-0.045
-0.035
-0.025
-0.025
-0.025
-0.030
-0.040
-0.055
-0.065
-0.075
-0.085
-0.090
-0.095
-0.100
-0.105
-0.105
-0.110
-0.110
-0.105
-0.105
-0.100
-0.090
-0.080
-0.070
-0.060
-0.050
-0.045
-0.045
-0.045
-0.045
-0.050
-0.055
-0.055
-0.060
-0.060
-0.060
-0.060
-0.060
-0.060
-0.060
-0.060
-0.060
-0.065
-0.060
-0.055
-0.050
-0.040
-0.025
-0.010
0.000
0.015
0.025
0.030
0.030
0.030
0.025
0.025
0.025
0.025
0.030
0.035
0.040
0.050
0.055
0.060
0.065
0.070
0.080
0.085
0.090
0.095
0.100
0.105
0.110
0.115
0.115
0.120
